Data from кристалл3_MAYP1156461__0__28.txt Node

Date: Fri Sep 01 15:45:18 MSK 2023
User: mishev
Spectrometer: MAYP115646
Trigger mode: 0
Integration Time (sec): 5,000000E-2
Scans to average: 1
Electric dark correction enabled: true
Nonlinearity correction enabled: false
Boxcar width: 0
XAxis mode: Wavelengths
Number of Pixels in Spectrum: 2068
>>>>>Begin Spectral Data<<<<<
199,511	784,17
199,981	-139,83
200,452	26,17
200,923	-16,83
201,394	54,17
201,865	56,17
202,335	86,17
202,806	67,17
203,277	82,17
203,748	88,17
204,218	89,17
204,689	107,17
205,159	67,17
205,63	77,17
206,101	86,17
206,571	73,17
207,042	84,17
207,512	87,17
207,983	67,17
208,453	69,17
208,923	81,17
209,394	100,17
209,864	68,17
210,335	94,17
210,805	78,17
211,275	93,17
211,745	98,17
212,216	85,17
212,686	88,17
213,156	81,17
213,626	100,17
214,096	87,17
214,566	99,17
215,037	105,17
215,507	95,17
215,977	91,17
216,447	100,17
216,917	84,17
217,387	88,17
217,857	90,17
218,326	95,17
218,796	115,17
219,266	104,17
219,736	89,17
220,206	108,17
220,676	114,17
221,145	92,17
221,615	124,17
222,085	92,17
222,555	99,17
223,024	105,17
223,494	97,17
223,964	105,17
224,433	110,17
224,903	113,17
225,372	90,17
225,842	108,17
226,311	107,17
226,781	104,17
227,25	91,17
227,72	124,17
228,189	94,17
228,658	113,17
229,128	100,17
229,597	103,17
230,066	97,17
230,536	77,17
231,005	117,17
231,474	116,17
231,943	103,17
232,412	112,17
232,881	108,17
233,351	95,17
233,82	121,17
234,289	99,17
234,758	86,17
235,227	100,17
235,696	87,17
236,165	89,17
236,634	100,17
237,103	85,17
237,572	99,17
238,04	97,17
238,509	87,17
238,978	98,17
239,447	104,17
239,916	102,17
240,384	105,17
240,853	105,17
241,322	109,17
241,79	102,17
242,259	105,17
242,728	119,17
243,196	90,17
243,665	105,17
244,133	104,17
244,602	84,17
245,07	95,17
245,539	89,17
246,007	128,17
246,476	123,17
246,944	111,17
247,413	108,17
247,881	82,17
248,349	94,17
248,817	100,17
249,286	102,17
249,754	100,17
250,222	98,17
250,69	104,17
251,159	93,17
251,627	105,17
252,095	111,17
252,563	101,17
253,031	134,17
253,499	110,17
253,967	112,17
254,435	101,17
254,903	106,17
255,371	118,17
255,839	130,17
256,307	108,17
256,775	120,17
257,242	112,17
257,71	117,17
258,178	96,17
258,646	120,17
259,114	100,17
259,581	126,17
260,049	93,17
260,517	106,17
260,984	115,17
261,452	97,17
261,919	102,17
262,387	84,17
262,855	120,17
263,322	96,17
263,79	104,17
264,257	92,17
264,724	96,17
265,192	108,17
265,659	118,17
266,127	93,17
266,594	112,17
267,061	102,17
267,529	120,17
267,996	127,17
268,463	104,17
268,93	109,17
269,397	95,17
269,865	105,17
270,332	96,17
270,799	100,17
271,266	118,17
271,733	114,17
272,2	101,17
272,667	103,17
273,134	112,17
273,601	110,17
274,068	106,17
274,535	83,17
275,002	134,17
275,469	110,17
275,935	95,17
276,402	101,17
276,869	112,17
277,336	122,17
277,802	106,17
278,269	121,17
278,736	124,17
279,203	107,17
279,669	121,17
280,136	129,17
280,602	114,17
281,069	109,17
281,535	100,17
282,002	110,17
282,468	88,17
282,935	91,17
283,401	111,17
283,868	96,17
284,334	112,17
284,8	97,17
285,267	116,17
285,733	100,17
286,199	111,17
286,666	108,17
287,132	101,17
287,598	114,17
288,064	106,17
288,53	94,17
288,996	108,17
289,463	97,17
289,929	102,17
290,395	103,17
290,861	94,17
291,327	97,17
291,793	108,17
292,259	114,17
292,725	115,17
293,19	91,17
293,656	113,17
294,122	96,17
294,588	98,17
295,054	111,17
295,52	113,17
295,985	118,17
296,451	82,17
296,917	98,17
297,382	91,17
297,848	111,17
298,314	101,17
298,779	103,17
299,245	111,17
299,71	102,17
300,176	109,17
300,641	102,17
301,107	95,17
301,572	114,17
302,038	87,17
302,503	108,17
302,968	102,17
303,434	118,17
303,899	115,17
304,364	131,17
304,83	100,17
305,295	94,17
305,76	92,17
306,225	113,17
306,69	113,17
307,156	97,17
307,621	113,17
308,086	113,17
308,551	107,17
309,016	92,17
309,481	101,17
309,946	96,17
310,411	88,17
310,876	115,17
311,341	96,17
311,806	83,17
312,27	103,17
312,735	86,17
313,2	101,17
313,665	89,17
314,13	127,17
314,594	104,17
315,059	86,17
315,524	92,17
315,988	118,17
316,453	99,17
316,918	105,17
317,382	86,17
317,847	108,17
318,311	103,17
318,776	102,17
319,24	101,17
319,705	94,17
320,169	110,17
320,634	87,17
321,098	108,17
321,562	122,17
322,027	110,17
322,491	84,17
322,955	104,17
323,419	115,17
323,884	99,17
324,348	126,17
324,812	102,17
325,276	85,17
325,74	116,17
326,204	104,17
326,668	81,17
327,132	105,17
327,596	82,17
328,06	105,17
328,524	97,17
328,988	97,17
329,452	106,17
329,916	117,17
330,38	110,17
330,844	94,17
331,308	100,17
331,771	102,17
332,235	110,17
332,699	96,17
333,163	95,17
333,626	95,17
334,09	100,17
334,554	98,17
335,017	80,17
335,481	104,17
335,944	122,17
336,408	95,17
336,871	96,17
337,335	92,17
337,798	95,17
338,262	95,17
338,725	111,17
339,188	105,17
339,652	78,17
340,115	120,17
340,578	106,17
341,042	116,17
341,505	106,17
341,968	102,17
342,431	194,17
342,895	85,17
343,358	107,17
343,821	80,17
344,284	94,17
344,747	120,17
345,21	85,17
345,673	101,17
346,136	112,17
346,599	110,17
347,062	95,17
347,525	100,17
347,988	110,17
348,451	91,17
348,913	100,17
349,376	99,17
349,839	96,17
350,302	109,17
350,765	99,17
351,227	126,17
351,69	104,17
352,153	108,17
352,615	96,17
353,078	112,17
353,54	95,17
354,003	107,17
354,465	108,17
354,928	88,17
355,39	99,17
355,853	108,17
356,315	104,17
356,778	106,17
357,24	120,17
357,702	114,17
358,165	112,17
358,627	105,17
359,089	104,17
359,552	102,17
360,014	95,17
360,476	115,17
360,938	95,17
361,4	98,17
361,862	110,17
362,325	99,17
362,787	108,17
363,249	98,17
363,711	108,17
364,173	104,17
364,635	93,17
365,097	88,17
365,558	116,17
366,02	109,17
366,482	124,17
366,944	85,17
367,406	92,17
367,868	110,17
368,329	101,17
368,791	98,17
369,253	88,17
369,714	103,17
370,176	117,17
370,638	93,17
371,099	97,17
371,561	111,17
372,022	78,17
372,484	103,17
372,945	107,17
373,407	102,17
373,868	98,17
374,33	97,17
374,791	100,17
375,253	105,17
375,714	92,17
376,175	101,17
376,637	105,17
377,098	119,17
377,559	94,17
378,02	108,17
378,481	85,17
378,943	92,17
379,404	87,17
379,865	109,17
380,326	106,17
380,787	101,17
381,248	88,17
381,709	95,17
382,17	98,17
382,631	97,17
383,092	99,17
383,553	109,17
384,014	112,17
384,474	93,17
384,935	112,17
385,396	83,17
385,857	81,17
386,318	99,17
386,778	110,17
387,239	99,17
387,7	108,17
388,16	83,17
388,621	89,17
389,082	122,17
389,542	98,17
390,003	132,17
390,463	109,17
390,924	109,17
391,384	119,17
391,845	109,17
392,305	97,17
392,765	114,17
393,226	87,17
393,686	97,17
394,146	106,17
394,607	98,17
395,067	108,17
395,527	87,17
395,987	94,17
396,447	108,17
396,908	92,17
397,368	108,17
397,828	81,17
398,288	116,17
398,748	99,17
399,208	105,17
399,668	108,17
400,128	108,17
400,588	107,17
401,048	114,17
401,508	109,17
401,968	95,17
402,427	93,17
402,887	102,17
403,347	119,17
403,807	105,17
404,266	90,17
404,726	126,17
405,186	113,17
405,645	104,17
406,105	109,17
406,565	109,17
407,024	102,17
407,484	102,17
407,943	117,17
408,403	105,17
408,862	105,17
409,322	116,17
409,781	137,17
410,241	115,17
410,7	129,17
411,159	128,17
411,619	138,17
412,078	125,17
412,537	144,17
412,996	152,17
413,456	147,17
413,915	135,17
414,374	156,17
414,833	164,17
415,292	166,17
415,751	171,17
416,21	210,17
416,669	189,17
417,128	199,17
417,587	180,17
418,046	194,17
418,505	237,17
418,964	232,17
419,423	206,17
419,882	265,17
420,341	289,17
420,799	277,17
421,258	317,17
421,717	303,17
422,176	318,17
422,634	354,17
423,093	364,17
423,552	357,17
424,01	384,17
424,469	376,17
424,927	446,17
425,386	453,17
425,844	500,17
426,303	472,17
426,761	526,17
427,22	559,17
427,678	590,17
428,137	616,17
428,595	618,17
429,053	707,17
429,512	718,17
429,97	729,17
430,428	776,17
430,886	844,17
431,344	870,17
431,803	870,17
432,261	879,17
432,719	970,17
433,177	999,17
433,635	1045,17
434,093	1116,17
434,551	1152,17
435,009	1182,17
435,467	1222,17
435,925	1297,17
436,383	1401,17
436,841	1465,17
437,299	1507,17
437,756	1599,17
438,214	1700,17
438,672	1756,17
439,13	1853,17
439,587	1974,17
440,045	2037,17
440,503	2120,17
440,96	2218,17
441,418	2298,17
441,876	2412,17
442,333	2480,17
442,791	2577,17
443,248	2663,17
443,706	2691,17
444,163	2766,17
444,621	2812,17
445,078	2856,17
445,535	2863,17
445,993	2888,17
446,45	2825,17
446,907	2746,17
447,365	2685,17
447,822	2664,17
448,279	2547,17
448,736	2446,17
449,193	2332,17
449,651	2243,17
450,108	2182,17
450,565	2061,17
451,022	1887,17
451,479	1839,17
451,936	1701,17
452,393	1570,17
452,85	1509,17
453,307	1380,17
453,764	1322,17
454,221	1213,17
454,677	1202,17
455,134	1130,17
455,591	1105,17
456,048	1069,17
456,505	1040,17
456,961	954,17
457,418	894,17
457,875	889,17
458,331	904,17
458,788	838,17
459,244	836,17
459,701	802,17
460,158	822,17
460,614	791,17
461,071	724,17
461,527	735,17
461,983	690,17
462,44	697,17
462,896	657,17
463,353	623,17
463,809	652,17
464,265	599,17
464,721	584,17
465,178	569,17
465,634	538,17
466,09	549,17
466,546	522,17
467,002	484,17
467,458	497,17
467,915	454,17
468,371	422,17
468,827	410,17
469,283	411,17
469,739	422,17
470,195	384,17
470,651	379,17
471,106	352,17
471,562	357,17
472,018	346,17
472,474	333,17
472,93	359,17
473,386	356,17
473,841	330,17
474,297	327,17
474,753	339,17
475,208	333,17
475,664	337,17
476,12	310,17
476,575	299,17
477,031	309,17
477,486	321,17
477,942	312,17
478,397	295,17
478,853	336,17
479,308	298,17
479,763	286,17
480,219	279,17
480,674	275,17
481,13	302,17
481,585	290,17
482,04	321,17
482,495	300,17
482,951	323,17
483,406	277,17
483,861	304,17
484,316	304,17
484,771	276,17
485,226	313,17
485,681	297,17
486,136	293,17
486,591	299,17
487,046	326,17
487,501	316,17
487,956	330,17
488,411	350,17
488,866	306,17
489,321	335,17
489,775	362,17
490,23	391,17
490,685	360,17
491,14	377,17
491,594	352,17
492,049	360,17
492,504	373,17
492,958	375,17
493,413	421,17
493,868	426,17
494,322	397,17
494,777	445,17
495,231	438,17
495,686	427,17
496,14	465,17
496,594	479,17
497,049	498,17
497,503	491,17
497,958	526,17
498,412	534,17
498,866	512,17
499,32	567,17
499,775	577,17
500,229	560,17
500,683	600,17
501,137	653,17
501,591	603,17
502,045	629,17
502,499	648,17
502,953	643,17
503,407	651,17
503,861	692,17
504,315	714,17
504,769	717,17
505,223	745,17
505,677	740,17
506,131	733,17
506,585	794,17
507,039	811,17
507,492	809,17
507,946	825,17
508,4	802,17
508,854	861,17
509,307	910,17
509,761	911,17
510,214	900,17
510,668	903,17
511,122	945,17
511,575	953,17
512,029	945,17
512,482	974,17
512,936	1028,17
513,389	1011,17
513,842	1028,17
514,296	1052,17
514,749	1066,17
515,202	1049,17
515,656	1076,17
516,109	1079,17
516,562	1116,17
517,015	1133,17
517,469	1135,17
517,922	1137,17
518,375	1167,17
518,828	1216,17
519,281	1167,17
519,734	1221,17
520,187	1182,17
520,64	1236,17
521,093	1204,17
521,546	1231,17
521,999	1248,17
522,452	1272,17
522,905	1297,17
523,358	1256,17
523,81	1309,17
524,263	1289,17
524,716	1314,17
525,169	1307,17
525,621	1324,17
526,074	1366,17
526,527	1311,17
526,979	1355,17
527,432	1345,17
527,884	1343,17
528,337	1357,17
528,789	1400,17
529,242	1374,17
529,694	1397,17
530,147	1425,17
530,599	1444,17
531,052	1484,17
531,504	1413,17
531,956	1456,17
532,409	1449,17
532,861	1461,17
533,313	1442,17
533,765	1487,17
534,218	1461,17
534,67	1433,17
535,122	1493,17
535,574	1436,17
536,026	1448,17
536,478	1447,17
536,93	1485,17
537,382	1456,17
537,834	1471,17
538,286	1474,17
538,738	1517,17
539,19	1477,17
539,642	1486,17
540,094	1507,17
540,545	1478,17
540,997	1536,17
541,449	1514,17
541,901	1484,17
542,352	1553,17
542,804	1518,17
543,256	1526,17
543,707	1526,17
544,159	1531,17
544,611	1542,17
545,062	1559,17
545,514	1564,17
545,965	1509,17
546,417	1499,17
546,868	1549,17
547,319	1550,17
547,771	1551,17
548,222	1606,17
548,674	1545,17
549,125	1603,17
549,576	1583,17
550,027	1564,17
550,479	1579,17
550,93	1619,17
551,381	1590,17
551,832	1577,17
552,283	1612,17
552,734	1582,17
553,185	1580,17
553,636	1608,17
554,087	1550,17
554,538	1595,17
554,989	1608,17
555,44	1591,17
555,891	1578,17
556,342	1558,17
556,793	1603,17
557,244	1662,17
557,694	1620,17
558,145	1591,17
558,596	1583,17
559,047	1611,17
559,497	1649,17
559,948	1563,17
560,399	1628,17
560,849	1613,17
561,3	1575,17
561,75	1599,17
562,201	1641,17
562,651	1614,17
563,102	1665,17
563,552	1630,17
564,003	1620,17
564,453	1634,17
564,903	1637,17
565,354	1684,17
565,804	1652,17
566,254	1652,17
566,705	1635,17
567,155	1608,17
567,605	1644,17
568,055	1628,17
568,505	1659,17
568,955	1640,17
569,405	1625,17
569,856	1635,17
570,306	1664,17
570,756	1636,17
571,206	1627,17
571,656	1668,17
572,105	1697,17
572,555	1665,17
573,005	1689,17
573,455	1671,17
573,905	1655,17
574,355	1643,17
574,804	1666,17
575,254	1653,17
575,704	1637,17
576,154	1625,17
576,603	1617,17
577,053	1674,17
577,502	1668,17
577,952	1689,17
578,402	1676,17
578,851	1695,17
579,301	1670,17
579,75	1665,17
580,199	1649,17
580,649	1644,17
581,098	1659,17
581,548	1715,17
581,997	1647,17
582,446	1641,17
582,895	1686,17
583,345	1679,17
583,794	1640,17
584,243	1655,17
584,692	1684,17
585,141	1657,17
585,591	1657,17
586,04	1688,17
586,489	1704,17
586,938	1659,17
587,387	1636,17
587,836	1712,17
588,285	1644,17
588,734	1621,17
589,182	1680,17
589,631	1661,17
590,08	1659,17
590,529	1664,17
590,978	1649,17
591,426	1652,17
591,875	1625,17
592,324	1673,17
592,773	1632,17
593,221	1641,17
593,67	1592,17
594,118	1658,17
594,567	1666,17
595,016	1668,17
595,464	1620,17
595,913	1653,17
596,361	1678,17
596,809	1623,17
597,258	1626,17
597,706	1589,17
598,155	1602,17
598,603	1614,17
599,051	1659,17
599,499	1608,17
599,948	1616,17
600,396	1595,17
600,844	1538,17
601,292	1593,17
601,74	1589,17
602,188	1571,17
602,636	1579,17
603,085	1592,17
603,533	1619,17
603,981	1506,17
604,429	1566,17
604,876	1554,17
605,324	1560,17
605,772	1593,17
606,22	1576,17
606,668	1568,17
607,116	1552,17
607,563	1528,17
608,011	1555,17
608,459	1532,17
608,907	1534,17
609,354	1510,17
609,802	1521,17
610,25	1540,17
610,697	1505,17
611,145	1560,17
611,592	1519,17
612,04	1523,17
612,487	1536,17
612,935	1504,17
613,382	1514,17
613,829	1473,17
614,277	1499,17
614,724	1488,17
615,171	1487,17
615,619	1517,17
616,066	1480,17
616,513	1477,17
616,96	1479,17
617,408	1471,17
617,855	1450,17
618,302	1474,17
618,749	1450,17
619,196	1460,17
619,643	1466,17
620,09	1414,17
620,537	1421,17
620,984	1384,17
621,431	1396,17
621,878	1389,17
622,325	1412,17
622,771	1401,17
623,218	1350,17
623,665	1387,17
624,112	1412,17
624,559	1387,17
625,005	1364,17
625,452	1370,17
625,899	1327,17
626,345	1353,17
626,792	1337,17
627,238	1340,17
627,685	1328,17
628,131	1285,17
628,578	1279,17
629,024	1297,17
629,471	1263,17
629,917	1311,17
630,364	1267,17
630,81	1304,17
631,256	1290,17
631,703	1264,17
632,149	1252,17
632,595	1278,17
633,041	1264,17
633,487	1223,17
633,934	1236,17
634,38	1196,17
634,826	1226,17
635,272	1235,17
635,718	1177,17
636,164	1161,17
636,61	1177,17
637,056	1190,17
637,502	1206,17
637,948	1115,17
638,394	1174,17
638,839	1122,17
639,285	1178,17
639,731	1128,17
640,177	1148,17
640,623	1148,17
641,068	1096,17
641,514	1114,17
641,96	1114,17
642,405	1070,17
642,851	1079,17
643,296	1130,17
643,742	1089,17
644,187	1084,17
644,633	1021,17
645,078	1090,17
645,524	1058,17
645,969	1038,17
646,415	1020,17
646,86	992,17
647,305	1024,17
647,751	1016,17
648,196	1040,17
648,641	1022,17
649,086	987,17
649,532	976,17
649,977	972,17
650,422	967,17
650,867	946,17
651,312	960,17
651,757	956,17
652,202	944,17
652,647	916,17
653,092	937,17
653,537	889,17
653,982	896,17
654,427	938,17
654,872	929,17
655,316	877,17
655,761	909,17
656,206	871,17
656,651	837,17
657,096	880,17
657,54	871,17
657,985	854,17
658,43	914,17
658,874	863,17
659,319	854,17
659,763	827,17
660,208	825,17
660,652	824,17
661,097	766,17
661,541	820,17
661,986	818,17
662,43	794,17
662,874	813,17
663,319	766,17
663,763	779,17
664,207	766,17
664,651	775,17
665,096	762,17
665,54	760,17
665,984	740,17
666,428	732,17
666,872	744,17
667,316	737,17
667,76	768,17
668,204	725,17
668,648	696,17
669,092	742,17
669,536	699,17
669,98	694,17
670,424	692,17
670,868	701,17
671,312	680,17
671,756	704,17
672,199	708,17
672,643	638,17
673,087	649,17
673,531	622,17
673,974	637,17
674,418	658,17
674,862	641,17
675,305	644,17
675,749	662,17
676,192	639,17
676,636	603,17
677,079	591,17
677,523	631,17
677,966	646,17
678,409	624,17
678,853	641,17
679,296	578,17
679,739	592,17
680,183	590,17
680,626	572,17
681,069	572,17
681,512	571,17
681,955	536,17
682,399	585,17
682,842	563,17
683,285	546,17
683,728	565,17
684,171	552,17
684,614	532,17
685,057	552,17
685,5	543,17
685,943	512,17
686,386	504,17
686,828	512,17
687,271	528,17
687,714	505,17
688,157	521,17
688,6	493,17
689,042	484,17
689,485	482,17
689,928	484,17
690,37	512,17
690,813	479,17
691,255	516,17
691,698	484,17
692,141	501,17
692,583	481,17
693,025	482,17
693,468	454,17
693,91	473,17
694,353	478,17
694,795	478,17
695,237	452,17
695,68	446,17
696,122	486,17
696,564	458,17
697,006	449,17
697,449	472,17
697,891	400,17
698,333	453,17
698,775	432,17
699,217	418,17
699,659	476,17
700,101	416,17
700,543	437,17
700,985	428,17
701,427	428,17
701,869	411,17
702,311	420,17
702,753	403,17
703,195	420,17
703,636	390,17
704,078	404,17
704,52	407,17
704,962	413,17
705,403	409,17
705,845	395,17
706,286	389,17
706,728	388,17
707,17	376,17
707,611	397,17
708,053	372,17
708,494	392,17
708,936	394,17
709,377	357,17
709,819	380,17
710,26	374,17
710,701	379,17
711,143	381,17
711,584	358,17
712,025	396,17
712,466	364,17
712,908	356,17
713,349	329,17
713,79	364,17
714,231	353,17
714,672	351,17
715,113	353,17
715,554	346,17
715,995	312,17
716,436	328,17
716,877	334,17
717,318	349,17
717,759	336,17
718,2	304,17
718,641	307,17
719,082	308,17
719,522	302,17
719,963	314,17
720,404	320,17
720,844	326,17
721,285	324,17
721,726	314,17
722,166	293,17
722,607	304,17
723,048	329,17
723,488	313,17
723,929	313,17
724,369	291,17
724,81	287,17
725,25	269,17
725,69	280,17
726,131	278,17
726,571	292,17
727,011	286,17
727,452	279,17
727,892	281,17
728,332	254,17
728,772	294,17
729,212	266,17
729,653	274,17
730,093	273,17
730,533	262,17
730,973	288,17
731,413	283,17
731,853	266,17
732,293	255,17
732,733	271,17
733,173	275,17
733,613	271,17
734,052	282,17
734,492	256,17
734,932	239,17
735,372	240,17
735,812	228,17
736,251	246,17
736,691	253,17
737,131	288,17
737,57	240,17
738,01	238,17
738,449	250,17
738,889	246,17
739,329	215,17
739,768	232,17
740,208	251,17
740,647	221,17
741,086	248,17
741,526	214,17
741,965	224,17
742,404	234,17
742,844	246,17
743,283	207,17
743,722	226,17
744,161	230,17
744,601	236,17
745,04	224,17
745,479	253,17
745,918	210,17
746,357	213,17
746,796	236,17
747,235	215,17
747,674	229,17
748,113	204,17
748,552	202,17
748,991	212,17
749,43	190,17
749,869	216,17
750,307	229,17
750,746	208,17
751,185	209,17
751,624	206,17
752,062	210,17
752,501	221,17
752,94	200,17
753,378	205,17
753,817	224,17
754,255	211,17
754,694	202,17
755,132	190,17
755,571	191,17
756,009	179,17
756,448	190,17
756,886	210,17
757,325	199,17
757,763	158,17
758,201	200,17
758,639	184,17
759,078	187,17
759,516	188,17
759,954	205,17
760,392	192,17
760,83	170,17
761,268	177,17
761,707	193,17
762,145	191,17
762,583	177,17
763,021	168,17
763,459	172,17
763,896	176,17
764,334	174,17
764,772	181,17
765,21	176,17
765,648	181,17
766,086	182,17
766,524	168,17
766,961	175,17
767,399	174,17
767,837	187,17
768,274	177,17
768,712	202,17
769,149	180,17
769,587	164,17
770,025	148,17
770,462	172,17
770,9	157,17
771,337	166,17
771,774	157,17
772,212	179,17
772,649	164,17
773,087	156,17
773,524	155,17
773,961	164,17
774,398	165,17
774,836	174,17
775,273	173,17
775,71	163,17
776,147	175,17
776,584	148,17
777,021	161,17
777,458	158,17
777,895	155,17
778,332	145,17
778,769	172,17
779,206	160,17
779,643	150,17
780,08	162,17
780,517	165,17
780,954	147,17
781,391	160,17
781,827	137,17
782,264	166,17
782,701	145,17
783,137	155,17
783,574	144,17
784,011	144,17
784,447	160,17
784,884	154,17
785,32	144,17
785,757	141,17
786,193	153,17
786,63	146,17
787,066	144,17
787,503	152,17
787,939	153,17
788,375	151,17
788,812	122,17
789,248	139,17
789,684	164,17
790,12	163,17
790,557	138,17
790,993	157,17
791,429	144,17
791,865	138,17
792,301	150,17
792,737	145,17
793,173	122,17
793,609	120,17
794,045	117,17
794,481	155,17
794,917	134,17
795,353	145,17
795,789	146,17
796,225	159,17
796,66	122,17
797,096	142,17
797,532	136,17
797,968	154,17
798,403	117,17
798,839	153,17
799,275	139,17
799,71	145,17
800,146	123,17
800,581	139,17
801,017	133,17
801,452	140,17
801,888	148,17
802,323	155,17
802,759	129,17
803,194	132,17
803,629	129,17
804,065	118,17
804,5	140,17
804,935	140,17
805,37	130,17
805,806	133,17
806,241	137,17
806,676	138,17
807,111	103,17
807,546	111,17
807,981	143,17
808,416	129,17
808,851	125,17
809,286	119,17
809,721	132,17
810,156	138,17
810,591	132,17
811,026	142,17
811,46	141,17
811,895	128,17
812,33	111,17
812,765	125,17
813,199	113,17
813,634	136,17
814,069	125,17
814,503	131,17
814,938	201,17
815,373	148,17
815,807	111,17
816,242	143,17
816,676	119,17
817,111	118,17
817,545	140,17
817,979	125,17
818,414	139,17
818,848	126,17
819,282	137,17
819,717	122,17
820,151	122,17
820,585	125,17
821,019	155,17
821,453	108,17
821,888	107,17
822,322	119,17
822,756	158,17
823,19	134,17
823,624	108,17
824,058	119,17
824,492	129,17
824,926	122,17
825,36	114,17
825,794	122,17
826,227	124,17
826,661	112,17
827,095	127,17
827,529	138,17
827,962	155,17
828,396	116,17
828,83	112,17
829,263	120,17
829,697	130,17
830,131	116,17
830,564	133,17
830,998	119,17
831,431	144,17
831,865	126,17
832,298	119,17
832,732	123,17
833,165	114,17
833,598	136,17
834,032	119,17
834,465	131,17
834,898	120,17
835,331	120,17
835,765	108,17
836,198	117,17
836,631	115,17
837,064	105,17
837,497	115,17
837,93	126,17
838,363	113,17
838,796	122,17
839,229	118,17
839,662	124,17
840,095	116,17
840,528	128,17
840,961	121,17
841,394	115,17
841,827	115,17
842,259	123,17
842,692	113,17
843,125	122,17
843,558	119,17
843,99	122,17
844,423	93,17
844,855	109,17
845,288	123,17
845,721	130,17
846,153	97,17
846,586	118,17
847,018	138,17
847,45	117,17
847,883	122,17
848,315	120,17
848,748	122,17
849,18	131,17
849,612	119,17
850,044	122,17
850,477	132,17
850,909	132,17
851,341	108,17
851,773	113,17
852,205	110,17
852,637	118,17
853,069	100,17
853,501	108,17
853,933	116,17
854,365	96,17
854,797	161,17
855,229	106,17
855,661	126,17
856,093	121,17
856,525	110,17
856,957	120,17
857,388	102,17
857,82	106,17
858,252	139,17
858,683	125,17
859,115	120,17
859,547	108,17
859,978	114,17
860,41	109,17
860,841	119,17
861,273	110,17
861,704	134,17
862,136	108,17
862,567	111,17
862,999	131,17
863,43	140,17
863,861	117,17
864,293	113,17
864,724	173,17
865,155	97,17
865,586	95,17
866,017	104,17
866,449	108,17
866,88	111,17
867,311	118,17
867,742	134,17
868,173	104,17
868,604	106,17
869,035	112,17
869,466	113,17
869,897	127,17
870,328	105,17
870,759	107,17
871,189	109,17
871,62	123,17
872,051	98,17
872,482	134,17
872,912	112,17
873,343	94,17
873,774	117,17
874,204	102,17
874,635	118,17
875,066	107,17
875,496	98,17
875,927	92,17
876,357	115,17
876,788	105,17
877,218	106,17
877,648	115,17
878,079	125,17
878,509	111,17
878,939	107,17
879,37	117,17
879,8	114,17
880,23	108,17
880,66	124,17
881,091	125,17
881,521	109,17
881,951	126,17
882,381	116,17
882,811	108,17
883,241	100,17
883,671	88,17
884,101	92,17
884,531	116,17
884,961	114,17
885,391	116,17
885,82	114,17
886,25	95,17
886,68	119,17
887,11	115,17
887,539	118,17
887,969	101,17
888,399	107,17
888,828	119,17
889,258	103,17
889,688	106,17
890,117	97,17
890,547	118,17
890,976	130,17
891,406	105,17
891,835	133,17
892,264	127,17
892,694	90,17
893,123	126,17
893,553	130,17
893,982	110,17
894,411	119,17
894,84	125,17
895,269	105,17
895,699	98,17
896,128	106,17
896,557	104,17
896,986	111,17
897,415	114,17
897,844	108,17
898,273	98,17
898,702	120,17
899,131	119,17
899,56	97,17
899,989	112,17
900,418	108,17
900,846	101,17
901,275	103,17
901,704	103,17
902,133	110,17
902,561	115,17
902,99	117,17
903,419	100,17
903,847	98,17
904,276	121,17
904,704	119,17
905,133	123,17
905,561	107,17
905,99	114,17
906,418	109,17
906,847	127,17
907,275	108,17
907,704	112,17
908,132	119,17
908,56	129,17
908,988	104,17
909,417	112,17
909,845	102,17
910,273	88,17
910,701	129,17
911,129	112,17
911,557	113,17
911,985	129,17
912,413	108,17
912,841	86,17
913,269	106,17
913,697	98,17
914,125	106,17
914,553	107,17
914,981	112,17
915,409	128,17
915,837	102,17
916,264	101,17
916,692	114,17
917,12	107,17
917,547	116,17
917,975	107,17
918,403	113,17
918,83	96,17
919,258	115,17
919,685	111,17
920,113	107,17
920,54	107,17
920,968	122,17
921,395	119,17
921,823	128,17
922,25	99,17
922,677	93,17
923,104	85,17
923,532	114,17
923,959	117,17
924,386	117,17
924,813	123,17
925,24	113,17
925,668	118,17
926,095	119,17
926,522	97,17
926,949	112,17
927,376	107,17
927,803	118,17
928,23	114,17
928,657	120,17
929,083	86,17
929,51	107,17
929,937	108,17
930,364	97,17
930,791	97,17
931,217	100,17
931,644	138,17
932,071	114,17
932,497	106,17
932,924	99,17
933,351	103,17
933,777	129,17
934,204	126,17
934,63	110,17
935,057	97,17
935,483	111,17
935,909	102,17
936,336	110,17
936,762	98,17
937,188	105,17
937,615	97,17
938,041	119,17
938,467	101,17
938,893	116,17
939,32	133,17
939,746	121,17
940,172	135,17
940,598	121,17
941,024	116,17
941,45	114,17
941,876	120,17
942,302	107,17
942,728	107,17
943,154	113,17
943,58	108,17
944,005	103,17
944,431	112,17
944,857	101,17
945,283	101,17
945,709	123,17
946,134	109,17
946,56	115,17
946,986	99,17
947,411	94,17
947,837	105,17
948,262	120,17
948,688	106,17
949,113	93,17
949,539	100,17
949,964	109,17
950,39	110,17
950,815	117,17
951,24	123,17
951,666	110,17
952,091	106,17
952,516	120,17
952,941	109,17
953,367	107,17
953,792	123,17
954,217	107,17
954,642	104,17
955,067	105,17
955,492	123,17
955,917	102,17
956,342	111,17
956,767	112,17
957,192	123,17
957,617	102,17
958,042	106,17
958,466	118,17
958,891	121,17
959,316	98,17
959,741	111,17
960,166	95,17
960,59	108,17
961,015	102,17
961,439	119,17
961,864	121,17
962,289	93,17
962,713	102,17
963,138	116,17
963,562	140,17
963,987	117,17
964,411	103,17
964,835	105,17
965,26	101,17
965,684	107,17
966,108	80,17
966,533	127,17
966,957	89,17
967,381	98,17
967,805	102,17
968,229	107,17
968,654	104,17
969,078	89,17
969,502	108,17
969,926	96,17
970,35	111,17
970,774	88,17
971,198	102,17
971,622	118,17
972,045	93,17
972,469	137,17
972,893	124,17
973,317	112,17
973,741	124,17
974,164	113,17
974,588	112,17
975,012	116,17
975,435	115,17
975,859	136,17
976,283	110,17
976,706	119,17
977,13	107,17
977,553	109,17
977,977	101,17
978,4	110,17
978,824	135,17
979,247	90,17
979,67	105,17
980,094	133,17
980,517	100,17
980,94	115,17
981,363	107,17
981,786	121,17
982,21	95,17
982,633	122,17
983,056	105,17
983,479	110,17
983,902	99,17
984,325	114,17
984,748	109,17
985,171	112,17
985,594	110,17
986,017	105,17
986,44	97,17
986,863	111,17
987,285	93,17
987,708	125,17
988,131	110,17
988,554	109,17
988,976	110,17
989,399	137,17
989,822	126,17
990,244	133,17
990,667	106,17
991,089	150,17
991,512	120,17
991,934	127,17
992,357	141,17
992,779	104,17
993,201	114,17
993,624	106,17
994,046	123,17
994,468	126,17
994,891	129,17
995,313	102,17
995,735	101,17
996,157	103,17
996,579	119,17
997,002	124,17
997,424	125,17
997,846	114,17
998,268	113,17
998,69	103,17
999,112	109,17
999,534	104,17
999,956	112,17
1000,377	105,17
1000,799	119,17
1001,221	128,17
1001,643	96,17
1002,065	105,17
1002,486	115,17
1002,908	119,17
1003,33	118,17
1003,751	112,17
1004,173	103,17
1004,595	96,17
1005,016	105,17
1005,438	104,17
1005,859	109,17
1006,281	99,17
1006,702	114,17
1007,123	113,17
1007,545	103,17
1007,966	116,17
1008,387	113,17
1008,809	109,17
1009,23	108,17
1009,651	132,17
1010,072	112,17
1010,494	96,17
1010,915	100,17
1011,336	102,17
1011,757	113,17
1012,178	103,17
1012,599	113,17
1013,02	124,17
1013,441	83,17
1013,862	85,17
1014,283	83,17
1014,703	113,17
1015,124	110,17
1015,545	116,17
1015,966	116,17
1016,387	106,17
1016,807	106,17
1017,228	106,17
1017,649	98,17
1018,069	100,17
1018,49	107,17
1018,91	131,17
1019,331	120,17
1019,751	113,17
1020,172	120,17
1020,592	99,17
1021,013	101,17
1021,433	110,17
1021,853	120,17
1022,274	98,17
1022,694	104,17
1023,114	115,17
1023,535	108,17
1023,955	93,17
1024,375	90,17
1024,795	98,17
1025,215	107,17
1025,635	128,17
1026,055	109,17
1026,475	117,17
1026,895	115,17
1027,315	133,17
1027,735	125,17
1028,155	108,17
1028,575	110,17
1028,995	99,17
1029,414	103,17
1029,834	120,17
1030,254	123,17
1030,674	108,17
1031,093	113,17
1031,513	146,17
1031,933	116,17
1032,352	105,17
1032,772	82,17
1033,191	142,17
1033,611	110,17
1034,03	106,17
1034,45	102,17
1034,869	127,17
1035,289	105,17
1035,708	128,17
1036,127	98,17
1036,546	100,17
1036,966	136,17
1037,385	108,17
1037,804	110,17
1038,223	136,17
1038,642	117,17
1039,062	134,17
1039,481	94,17
1039,9	120,17
1040,319	108,17
1040,738	117,17
1041,157	96,17
1041,576	114,17
1041,994	100,17
1042,413	114,17
1042,832	112,17
1043,251	116,17
1043,67	122,17
1044,088	108,17
1044,507	109,17
1044,926	119,17
1045,345	125,17
1045,763	118,17
1046,182	104,17
1046,6	121,17
1047,019	111,17
1047,437	124,17
1047,856	101,17
1048,274	115,17
1048,693	108,17
1049,111	134,17
1049,529	119,17
1049,948	116,17
1050,366	128,17
1050,784	96,17
1051,202	105,17
1051,621	127,17
1052,039	134,17
1052,457	131,17
1052,875	77,17
1053,293	119,17
1053,711	107,17
1054,129	111,17
1054,547	109,17
1054,965	96,17
1055,383	117,17
1055,801	100,17
1056,219	96,17
1056,637	124,17
1057,054	95,17
1057,472	101,17
1057,89	113,17
1058,308	100,17
1058,725	100,17
1059,143	108,17
1059,561	112,17
1059,978	112,17
1060,396	116,17
1060,813	104,17
1061,231	138,17
1061,648	117,17
1062,066	102,17
1062,483	111,17
1062,9	100,17
1063,318	126,17
1063,735	103,17
1064,152	136,17
1064,57	104,17
1064,987	96,17
1065,404	108,17
1065,821	114,17
1066,238	88,17
1066,655	103,17
1067,073	109,17
1067,49	93,17
1067,907	114,17
1068,324	113,17
1068,741	100,17
1069,157	101,17
1069,574	104,17
1069,991	116,17
1070,408	113,17
1070,825	131,17
1071,242	121,17
1071,658	104,17
1072,075	128,17
1072,492	96,17
1072,908	107,17
1073,325	108,17
1073,742	79,17
1074,158	101,17
1074,575	109,17
1074,991	95,17
1075,408	123,17
1075,824	135,17
1076,24	97,17
1076,657	113,17
1077,073	113,17
1077,489	101,17
1077,906	107,17
1078,322	107,17
1078,738	111,17
1079,154	119,17
1079,571	109,17
1079,987	105,17
1080,403	113,17
1080,819	140,17
1081,235	132,17
1081,651	103,17
1082,067	93,17
1082,483	109,17
1082,899	99,17
1083,315	120,17
1083,73	125,17
1084,146	108,17
1084,562	99,17
1084,978	115,17
1085,394	117,17
1085,809	120,17
1086,225	114,17
1086,641	107,17
1087,056	109,17
1087,472	96,17
1087,887	94,17
1088,303	112,17
1088,718	113,17
1089,134	115,17
1089,549	116,17
1089,965	116,17
1090,38	97,17
1090,795	117,17
1091,21	124,17
1091,626	108,17
1092,041	103,17
1092,456	107,17
1092,871	126,17
1093,287	114,17
1093,702	109,17
1094,117	85,17
1094,532	113,17
1094,947	100,17
1095,362	103,17
1095,777	99,17
1096,192	114,17
1096,607	167,17
1097,021	126,17
1097,436	136,17
1097,851	103,17
1098,266	104,17
1098,681	126,17
1099,095	93,17
1099,51	131,17
1099,925	108,17
1100,339	114,17
1100,754	96,17
1101,168	88,17
1101,583	91,17
1101,998	114,17
1102,412	125,17
1102,826	96,17
1103,241	94,17
1103,655	109,17
1104,07	98,17
1104,484	91,17
1104,898	117,17
1105,312	100,17
1105,727	93,17
1106,141	78,17
1106,555	102,17
1106,969	91,17
1107,383	110,17
1107,797	98,17
1108,211	91,17
1108,625	97,17
1109,039	98,17
1109,453	89,17
1109,867	89,17
1110,281	72,17
1110,695	81,17
1111,109	87,17
1111,523	78,17
1111,936	74,17
1112,35	71,17
1112,764	76,17
1113,177	60,17
1113,591	73,17
1114,005	72,17
1114,418	-1,83
1114,832	-3,83
1115,245	-1,83
1115,659	-1,83
