Data from кристалл4_MAYP1156461__2__36.txt Node

Date: Fri Sep 01 16:24:51 MSK 2023
User: mishev
Spectrometer: MAYP115646
Trigger mode: 0
Integration Time (sec): 5,000000E-2
Scans to average: 1
Electric dark correction enabled: true
Nonlinearity correction enabled: false
Boxcar width: 0
XAxis mode: Wavelengths
Number of Pixels in Spectrum: 2068
>>>>>Begin Spectral Data<<<<<
199,511	786,83
199,981	-144,17
200,452	23,83
200,923	-9,17
201,394	64,83
201,865	74,83
202,335	82,83
202,806	78,83
203,277	85,83
203,748	77,83
204,218	84,83
204,689	114,83
205,159	78,83
205,63	92,83
206,101	83,83
206,571	79,83
207,042	84,83
207,512	86,83
207,983	80,83
208,453	77,83
208,923	73,83
209,394	104,83
209,864	80,83
210,335	94,83
210,805	78,83
211,275	92,83
211,745	97,83
212,216	97,83
212,686	93,83
213,156	84,83
213,626	96,83
214,096	103,83
214,566	98,83
215,037	108,83
215,507	111,83
215,977	104,83
216,447	92,83
216,917	93,83
217,387	84,83
217,857	104,83
218,326	96,83
218,796	99,83
219,266	104,83
219,736	90,83
220,206	122,83
220,676	101,83
221,145	89,83
221,615	128,83
222,085	94,83
222,555	108,83
223,024	110,83
223,494	97,83
223,964	106,83
224,433	141,83
224,903	122,83
225,372	104,83
225,842	97,83
226,311	112,83
226,781	101,83
227,25	95,83
227,72	109,83
228,189	103,83
228,658	119,83
229,128	115,83
229,597	105,83
230,066	91,83
230,536	88,83
231,005	109,83
231,474	110,83
231,943	110,83
232,412	118,83
232,881	102,83
233,351	101,83
233,82	119,83
234,289	126,83
234,758	95,83
235,227	117,83
235,696	97,83
236,165	98,83
236,634	104,83
237,103	99,83
237,572	95,83
238,04	111,83
238,509	105,83
238,978	102,83
239,447	115,83
239,916	126,83
240,384	115,83
240,853	106,83
241,322	115,83
241,79	101,83
242,259	127,83
242,728	117,83
243,196	92,83
243,665	106,83
244,133	117,83
244,602	104,83
245,07	88,83
245,539	104,83
246,007	112,83
246,476	122,83
246,944	104,83
247,413	120,83
247,881	95,83
248,349	107,83
248,817	108,83
249,286	105,83
249,754	110,83
250,222	108,83
250,69	117,83
251,159	106,83
251,627	110,83
252,095	97,83
252,563	95,83
253,031	130,83
253,499	103,83
253,967	126,83
254,435	95,83
254,903	104,83
255,371	109,83
255,839	140,83
256,307	96,83
256,775	121,83
257,242	104,83
257,71	120,83
258,178	98,83
258,646	131,83
259,114	107,83
259,581	130,83
260,049	95,83
260,517	102,83
260,984	125,83
261,452	96,83
261,919	97,83
262,387	88,83
262,855	122,83
263,322	97,83
263,79	121,83
264,257	98,83
264,724	93,83
265,192	104,83
265,659	116,83
266,127	90,83
266,594	132,83
267,061	119,83
267,529	123,83
267,996	112,83
268,463	108,83
268,93	114,83
269,397	96,83
269,865	102,83
270,332	95,83
270,799	109,83
271,266	132,83
271,733	118,83
272,2	117,83
272,667	114,83
273,134	109,83
273,601	120,83
274,068	124,83
274,535	80,83
275,002	125,83
275,469	102,83
275,935	96,83
276,402	101,83
276,869	109,83
277,336	131,83
277,802	100,83
278,269	121,83
278,736	109,83
279,203	114,83
279,669	118,83
280,136	128,83
280,602	108,83
281,069	105,83
281,535	112,83
282,002	112,83
282,468	100,83
282,935	101,83
283,401	107,83
283,868	100,83
284,334	104,83
284,8	112,83
285,267	114,83
285,733	104,83
286,199	121,83
286,666	94,83
287,132	104,83
287,598	111,83
288,064	113,83
288,53	105,83
288,996	105,83
289,463	101,83
289,929	127,83
290,395	107,83
290,861	108,83
291,327	104,83
291,793	115,83
292,259	98,83
292,725	122,83
293,19	95,83
293,656	121,83
294,122	103,83
294,588	102,83
295,054	122,83
295,52	105,83
295,985	129,83
296,451	99,83
296,917	96,83
297,382	99,83
297,848	118,83
298,314	111,83
298,779	115,83
299,245	122,83
299,71	122,83
300,176	114,83
300,641	103,83
301,107	101,83
301,572	109,83
302,038	110,83
302,503	107,83
302,968	100,83
303,434	123,83
303,899	110,83
304,364	143,83
304,83	99,83
305,295	100,83
305,76	101,83
306,225	127,83
306,69	118,83
307,156	92,83
307,621	109,83
308,086	116,83
308,551	121,83
309,016	103,83
309,481	100,83
309,946	108,83
310,411	111,83
310,876	115,83
311,341	108,83
311,806	97,83
312,27	104,83
312,735	85,83
313,2	100,83
313,665	108,83
314,13	126,83
314,594	102,83
315,059	95,83
315,524	109,83
315,988	115,83
316,453	102,83
316,918	119,83
317,382	103,83
317,847	139,83
318,311	106,83
318,776	116,83
319,24	110,83
319,705	104,83
320,169	123,83
320,634	95,83
321,098	114,83
321,562	123,83
322,027	113,83
322,491	79,83
322,955	119,83
323,419	129,83
323,884	117,83
324,348	126,83
324,812	129,83
325,276	95,83
325,74	100,83
326,204	114,83
326,668	102,83
327,132	98,83
327,596	87,83
328,06	110,83
328,524	112,83
328,988	101,83
329,452	104,83
329,916	117,83
330,38	107,83
330,844	100,83
331,308	112,83
331,771	103,83
332,235	109,83
332,699	97,83
333,163	100,83
333,626	118,83
334,09	87,83
334,554	95,83
335,017	108,83
335,481	104,83
335,944	135,83
336,408	85,83
336,871	105,83
337,335	94,83
337,798	97,83
338,262	89,83
338,725	124,83
339,188	99,83
339,652	91,83
340,115	115,83
340,578	103,83
341,042	124,83
341,505	108,83
341,968	95,83
342,431	215,83
342,895	93,83
343,358	103,83
343,821	93,83
344,284	117,83
344,747	128,83
345,21	91,83
345,673	105,83
346,136	121,83
346,599	111,83
347,062	120,83
347,525	96,83
347,988	125,83
348,451	100,83
348,913	90,83
349,376	105,83
349,839	98,83
350,302	109,83
350,765	106,83
351,227	154,83
351,69	110,83
352,153	98,83
352,615	97,83
353,078	119,83
353,54	112,83
354,003	109,83
354,465	87,83
354,928	91,83
355,39	90,83
355,853	123,83
356,315	103,83
356,778	139,83
357,24	120,83
357,702	126,83
358,165	116,83
358,627	116,83
359,089	108,83
359,552	100,83
360,014	103,83
360,476	110,83
360,938	95,83
361,4	119,83
361,862	111,83
362,325	106,83
362,787	93,83
363,249	96,83
363,711	114,83
364,173	118,83
364,635	96,83
365,097	101,83
365,558	137,83
366,02	99,83
366,482	138,83
366,944	91,83
367,406	116,83
367,868	111,83
368,329	102,83
368,791	98,83
369,253	100,83
369,714	109,83
370,176	116,83
370,638	100,83
371,099	90,83
371,561	109,83
372,022	99,83
372,484	112,83
372,945	120,83
373,407	100,83
373,868	100,83
374,33	112,83
374,791	89,83
375,253	108,83
375,714	119,83
376,175	114,83
376,637	112,83
377,098	125,83
377,559	99,83
378,02	117,83
378,481	105,83
378,943	95,83
379,404	104,83
379,865	91,83
380,326	108,83
380,787	130,83
381,248	102,83
381,709	99,83
382,17	105,83
382,631	110,83
383,092	104,83
383,553	119,83
384,014	123,83
384,474	99,83
384,935	113,83
385,396	94,83
385,857	99,83
386,318	109,83
386,778	123,83
387,239	120,83
387,7	103,83
388,16	87,83
388,621	85,83
389,082	124,83
389,542	103,83
390,003	132,83
390,463	107,83
390,924	103,83
391,384	119,83
391,845	113,83
392,305	96,83
392,765	117,83
393,226	102,83
393,686	111,83
394,146	125,83
394,607	112,83
395,067	100,83
395,527	100,83
395,987	111,83
396,447	110,83
396,908	96,83
397,368	108,83
397,828	93,83
398,288	110,83
398,748	111,83
399,208	110,83
399,668	98,83
400,128	105,83
400,588	116,83
401,048	130,83
401,508	119,83
401,968	113,83
402,427	98,83
402,887	100,83
403,347	117,83
403,807	108,83
404,266	75,83
404,726	130,83
405,186	115,83
405,645	100,83
406,105	100,83
406,565	105,83
407,024	106,83
407,484	109,83
407,943	115,83
408,403	98,83
408,862	115,83
409,322	112,83
409,781	126,83
410,241	111,83
410,7	114,83
411,159	102,83
411,619	114,83
412,078	110,83
412,537	109,83
412,996	124,83
413,456	124,83
413,915	101,83
414,374	122,83
414,833	115,83
415,292	109,83
415,751	113,83
416,21	148,83
416,669	130,83
417,128	127,83
417,587	113,83
418,046	113,83
418,505	128,83
418,964	151,83
419,423	117,83
419,882	133,83
420,341	157,83
420,799	134,83
421,258	148,83
421,717	137,83
422,176	148,83
422,634	156,83
423,093	146,83
423,552	134,83
424,01	140,83
424,469	137,83
424,927	161,83
425,386	157,83
425,844	162,83
426,303	142,83
426,761	157,83
427,22	178,83
427,678	171,83
428,137	194,83
428,595	178,83
429,053	226,83
429,512	213,83
429,97	200,83
430,428	229,83
430,886	227,83
431,344	231,83
431,803	220,83
432,261	224,83
432,719	239,83
433,177	257,83
433,635	240,83
434,093	256,83
434,551	274,83
435,009	268,83
435,467	297,83
435,925	300,83
436,383	295,83
436,841	336,83
437,299	339,83
437,756	361,83
438,214	391,83
438,672	379,83
439,13	397,83
439,587	444,83
440,045	446,83
440,503	476,83
440,96	497,83
441,418	496,83
441,876	485,83
442,333	536,83
442,791	537,83
443,248	558,83
443,706	563,83
444,163	559,83
444,621	587,83
445,078	604,83
445,535	594,83
445,993	587,83
446,45	594,83
446,907	554,83
447,365	542,83
447,822	570,83
448,279	542,83
448,736	538,83
449,193	508,83
449,651	518,83
450,108	503,83
450,565	438,83
451,022	447,83
451,479	421,83
451,936	417,83
452,393	392,83
452,85	364,83
453,307	353,83
453,764	345,83
454,221	327,83
454,677	337,83
455,134	305,83
455,591	302,83
456,048	319,83
456,505	302,83
456,961	255,83
457,418	268,83
457,875	294,83
458,331	268,83
458,788	249,83
459,244	260,83
459,701	244,83
460,158	244,83
460,614	255,83
461,071	242,83
461,527	213,83
461,983	230,83
462,44	212,83
462,896	227,83
463,353	196,83
463,809	211,83
464,265	216,83
464,721	194,83
465,178	197,83
465,634	235,83
466,09	197,83
466,546	190,83
467,002	204,83
467,458	217,83
467,915	175,83
468,371	174,83
468,827	160,83
469,283	165,83
469,739	181,83
470,195	188,83
470,651	165,83
471,106	160,83
471,562	155,83
472,018	164,83
472,474	145,83
472,93	166,83
473,386	156,83
473,841	155,83
474,297	172,83
474,753	160,83
475,208	161,83
475,664	164,83
476,12	153,83
476,575	156,83
477,031	149,83
477,486	148,83
477,942	166,83
478,397	144,83
478,853	175,83
479,308	158,83
479,763	135,83
480,219	149,83
480,674	137,83
481,13	146,83
481,585	153,83
482,04	142,83
482,495	140,83
482,951	164,83
483,406	130,83
483,861	165,83
484,316	155,83
484,771	136,83
485,226	168,83
485,681	161,83
486,136	169,83
486,591	150,83
487,046	188,83
487,501	148,83
487,956	170,83
488,411	190,83
488,866	154,83
489,321	171,83
489,775	160,83
490,23	170,83
490,685	169,83
491,14	190,83
491,594	149,83
492,049	173,83
492,504	178,83
492,958	157,83
493,413	192,83
493,868	197,83
494,322	163,83
494,777	180,83
495,231	179,83
495,686	182,83
496,14	196,83
496,594	185,83
497,049	211,83
497,503	175,83
497,958	213,83
498,412	206,83
498,866	196,83
499,32	197,83
499,775	214,83
500,229	224,83
500,683	211,83
501,137	233,83
501,591	242,83
502,045	217,83
502,499	239,83
502,953	247,83
503,407	236,83
503,861	249,83
504,315	243,83
504,769	244,83
505,223	255,83
505,677	253,83
506,131	263,83
506,585	257,83
507,039	280,83
507,492	274,83
507,946	281,83
508,4	277,83
508,854	296,83
509,307	286,83
509,761	294,83
510,214	305,83
510,668	288,83
511,122	302,83
511,575	327,83
512,029	322,83
512,482	304,83
512,936	342,83
513,389	317,83
513,842	336,83
514,296	322,83
514,749	336,83
515,202	335,83
515,656	338,83
516,109	345,83
516,562	366,83
517,015	349,83
517,469	355,83
517,922	340,83
518,375	342,83
518,828	386,83
519,281	369,83
519,734	396,83
520,187	364,83
520,64	400,83
521,093	378,83
521,546	380,83
521,999	380,83
522,452	399,83
522,905	409,83
523,358	408,83
523,81	372,83
524,263	380,83
524,716	409,83
525,169	426,83
525,621	409,83
526,074	436,83
526,527	434,83
526,979	424,83
527,432	428,83
527,884	425,83
528,337	404,83
528,789	427,83
529,242	408,83
529,694	411,83
530,147	437,83
530,599	438,83
531,052	416,83
531,504	428,83
531,956	471,83
532,409	428,83
532,861	434,83
533,313	477,83
533,765	452,83
534,218	434,83
534,67	441,83
535,122	453,83
535,574	435,83
536,026	433,83
536,478	444,83
536,93	461,83
537,382	436,83
537,834	452,83
538,286	453,83
538,738	452,83
539,19	483,83
539,642	470,83
540,094	484,83
540,545	453,83
540,997	465,83
541,449	477,83
541,901	446,83
542,352	497,83
542,804	456,83
543,256	473,83
543,707	438,83
544,159	470,83
544,611	457,83
545,062	469,83
545,514	473,83
545,965	471,83
546,417	436,83
546,868	444,83
547,319	476,83
547,771	451,83
548,222	483,83
548,674	472,83
549,125	501,83
549,576	493,83
550,027	489,83
550,479	499,83
550,93	458,83
551,381	465,83
551,832	485,83
552,283	482,83
552,734	483,83
553,185	509,83
553,636	472,83
554,087	477,83
554,538	493,83
554,989	523,83
555,44	481,83
555,891	479,83
556,342	480,83
556,793	494,83
557,244	521,83
557,694	500,83
558,145	497,83
558,596	478,83
559,047	483,83
559,497	491,83
559,948	497,83
560,399	501,83
560,849	493,83
561,3	503,83
561,75	500,83
562,201	504,83
562,651	498,83
563,102	521,83
563,552	502,83
564,003	495,83
564,453	505,83
564,903	511,83
565,354	484,83
565,804	471,83
566,254	498,83
566,705	504,83
567,155	508,83
567,605	476,83
568,055	488,83
568,505	496,83
568,955	491,83
569,405	488,83
569,856	487,83
570,306	520,83
570,756	503,83
571,206	504,83
571,656	506,83
572,105	511,83
572,555	495,83
573,005	481,83
573,455	512,83
573,905	516,83
574,355	491,83
574,804	525,83
575,254	508,83
575,704	525,83
576,154	525,83
576,603	517,83
577,053	525,83
577,502	515,83
577,952	510,83
578,402	518,83
578,851	561,83
579,301	500,83
579,75	511,83
580,199	520,83
580,649	515,83
581,098	555,83
581,548	501,83
581,997	516,83
582,446	499,83
582,895	502,83
583,345	510,83
583,794	531,83
584,243	531,83
584,692	541,83
585,141	507,83
585,591	528,83
586,04	513,83
586,489	517,83
586,938	536,83
587,387	495,83
587,836	544,83
588,285	505,83
588,734	525,83
589,182	518,83
589,631	526,83
590,08	527,83
590,529	527,83
590,978	538,83
591,426	532,83
591,875	538,83
592,324	533,83
592,773	488,83
593,221	509,83
593,67	521,83
594,118	533,83
594,567	517,83
595,016	507,83
595,464	524,83
595,913	551,83
596,361	570,83
596,809	516,83
597,258	513,83
597,706	486,83
598,155	517,83
598,603	528,83
599,051	493,83
599,499	509,83
599,948	524,83
600,396	529,83
600,844	517,83
601,292	520,83
601,74	501,83
602,188	544,83
602,636	484,83
603,085	544,83
603,533	538,83
603,981	527,83
604,429	508,83
604,876	545,83
605,324	509,83
605,772	521,83
606,22	511,83
606,668	516,83
607,116	528,83
607,563	512,83
608,011	521,83
608,459	541,83
608,907	521,83
609,354	493,83
609,802	518,83
610,25	512,83
610,697	529,83
611,145	528,83
611,592	524,83
612,04	528,83
612,487	523,83
612,935	513,83
613,382	510,83
613,829	526,83
614,277	513,83
614,724	505,83
615,171	501,83
615,619	512,83
616,066	501,83
616,513	542,83
616,96	532,83
617,408	500,83
617,855	508,83
618,302	504,83
618,749	502,83
619,196	539,83
619,643	498,83
620,09	500,83
620,537	529,83
620,984	468,83
621,431	477,83
621,878	491,83
622,325	502,83
622,771	521,83
623,218	492,83
623,665	478,83
624,112	522,83
624,559	514,83
625,005	504,83
625,452	496,83
625,899	475,83
626,345	491,83
626,792	488,83
627,238	480,83
627,685	488,83
628,131	461,83
628,578	492,83
629,024	460,83
629,471	471,83
629,917	496,83
630,364	489,83
630,81	504,83
631,256	489,83
631,703	484,83
632,149	458,83
632,595	488,83
633,041	480,83
633,487	458,83
633,934	466,83
634,38	449,83
634,826	463,83
635,272	464,83
635,718	445,83
636,164	448,83
636,61	472,83
637,056	471,83
637,502	467,83
637,948	453,83
638,394	466,83
638,839	447,83
639,285	492,83
639,731	442,83
640,177	434,83
640,623	436,83
641,068	434,83
641,514	430,83
641,96	466,83
642,405	436,83
642,851	442,83
643,296	462,83
643,742	444,83
644,187	427,83
644,633	433,83
645,078	416,83
645,524	440,83
645,969	438,83
646,415	429,83
646,86	444,83
647,305	418,83
647,751	437,83
648,196	436,83
648,641	428,83
649,086	412,83
649,532	397,83
649,977	405,83
650,422	405,83
650,867	409,83
651,312	412,83
651,757	414,83
652,202	405,83
652,647	406,83
653,092	409,83
653,537	429,83
653,982	408,83
654,427	433,83
654,872	390,83
655,316	412,83
655,761	395,83
656,206	365,83
656,651	378,83
657,096	413,83
657,54	381,83
657,985	390,83
658,43	415,83
658,874	373,83
659,319	385,83
659,763	385,83
660,208	378,83
660,652	395,83
661,097	385,83
661,541	372,83
661,986	382,83
662,43	367,83
662,874	380,83
663,319	363,83
663,763	354,83
664,207	391,83
664,651	343,83
665,096	370,83
665,54	365,83
665,984	355,83
666,428	332,83
666,872	368,83
667,316	350,83
667,76	352,83
668,204	348,83
668,648	358,83
669,092	367,83
669,536	362,83
669,98	365,83
670,424	342,83
670,868	351,83
671,312	360,83
671,756	369,83
672,199	362,83
672,643	324,83
673,087	349,83
673,531	333,83
673,974	309,83
674,418	320,83
674,862	365,83
675,305	336,83
675,749	329,83
676,192	316,83
676,636	320,83
677,079	321,83
677,523	332,83
677,966	337,83
678,409	313,83
678,853	318,83
679,296	310,83
679,739	313,83
680,183	327,83
680,626	285,83
681,069	310,83
681,512	318,83
681,955	298,83
682,399	317,83
682,842	317,83
683,285	300,83
683,728	344,83
684,171	326,83
684,614	304,83
685,057	318,83
685,5	295,83
685,943	277,83
686,386	277,83
686,828	297,83
687,271	289,83
687,714	286,83
688,157	303,83
688,6	278,83
689,042	278,83
689,485	273,83
689,928	292,83
690,37	286,83
690,813	283,83
691,255	280,83
691,698	311,83
692,141	279,83
692,583	296,83
693,025	282,83
693,468	264,83
693,91	247,83
694,353	279,83
694,795	280,83
695,237	267,83
695,68	241,83
696,122	299,83
696,564	264,83
697,006	258,83
697,449	246,83
697,891	268,83
698,333	283,83
698,775	254,83
699,217	261,83
699,659	285,83
700,101	245,83
700,543	268,83
700,985	245,83
701,427	244,83
701,869	255,83
702,311	253,83
702,753	246,83
703,195	265,83
703,636	228,83
704,078	225,83
704,52	252,83
704,962	233,83
705,403	262,83
705,845	242,83
706,286	239,83
706,728	228,83
707,17	236,83
707,611	240,83
708,053	239,83
708,494	255,83
708,936	253,83
709,377	228,83
709,819	217,83
710,26	216,83
710,701	259,83
711,143	242,83
711,584	204,83
712,025	275,83
712,466	216,83
712,908	233,83
713,349	191,83
713,79	250,83
714,231	236,83
714,672	205,83
715,113	213,83
715,554	221,83
715,995	207,83
716,436	197,83
716,877	214,83
717,318	213,83
717,759	213,83
718,2	186,83
718,641	198,83
719,082	202,83
719,522	192,83
719,963	192,83
720,404	208,83
720,844	207,83
721,285	216,83
721,726	177,83
722,166	191,83
722,607	207,83
723,048	226,83
723,488	201,83
723,929	174,83
724,369	212,83
724,81	197,83
725,25	175,83
725,69	199,83
726,131	184,83
726,571	190,83
727,011	199,83
727,452	183,83
727,892	188,83
728,332	173,83
728,772	188,83
729,212	180,83
729,653	208,83
730,093	191,83
730,533	181,83
730,973	189,83
731,413	187,83
731,853	194,83
732,293	173,83
732,733	206,83
733,173	180,83
733,613	188,83
734,052	182,83
734,492	181,83
734,932	170,83
735,372	170,83
735,812	164,83
736,251	184,83
736,691	190,83
737,131	206,83
737,57	173,83
738,01	179,83
738,449	181,83
738,889	177,83
739,329	184,83
739,768	177,83
740,208	171,83
740,647	158,83
741,086	191,83
741,526	157,83
741,965	164,83
742,404	176,83
742,844	188,83
743,283	162,83
743,722	150,83
744,161	164,83
744,601	170,83
745,04	172,83
745,479	181,83
745,918	168,83
746,357	155,83
746,796	176,83
747,235	148,83
747,674	177,83
748,113	152,83
748,552	158,83
748,991	156,83
749,43	144,83
749,869	167,83
750,307	177,83
750,746	170,83
751,185	160,83
751,624	173,83
752,062	160,83
752,501	156,83
752,94	166,83
753,378	176,83
753,817	172,83
754,255	162,83
754,694	156,83
755,132	148,83
755,571	148,83
756,009	160,83
756,448	160,83
756,886	185,83
757,325	164,83
757,763	135,83
758,201	165,83
758,639	135,83
759,078	150,83
759,516	151,83
759,954	166,83
760,392	156,83
760,83	145,83
761,268	148,83
761,707	165,83
762,145	151,83
762,583	137,83
763,021	136,83
763,459	149,83
763,896	152,83
764,334	164,83
764,772	154,83
765,21	141,83
765,648	135,83
766,086	134,83
766,524	149,83
766,961	156,83
767,399	162,83
767,837	156,83
768,274	149,83
768,712	151,83
769,149	166,83
769,587	145,83
770,025	124,83
770,462	140,83
770,9	126,83
771,337	135,83
771,774	133,83
772,212	173,83
772,649	126,83
773,087	133,83
773,524	123,83
773,961	136,83
774,398	141,83
774,836	142,83
775,273	152,83
775,71	136,83
776,147	150,83
776,584	128,83
777,021	136,83
777,458	130,83
777,895	152,83
778,332	136,83
778,769	139,83
779,206	144,83
779,643	128,83
780,08	144,83
780,517	156,83
780,954	128,83
781,391	143,83
781,827	120,83
782,264	161,83
782,701	137,83
783,137	129,83
783,574	140,83
784,011	124,83
784,447	140,83
784,884	126,83
785,32	112,83
785,757	140,83
786,193	145,83
786,63	130,83
787,066	140,83
787,503	132,83
787,939	161,83
788,375	125,83
788,812	109,83
789,248	116,83
789,684	137,83
790,12	144,83
790,557	156,83
790,993	137,83
791,429	138,83
791,865	132,83
792,301	118,83
792,737	129,83
793,173	122,83
793,609	129,83
794,045	113,83
794,481	145,83
794,917	133,83
795,353	129,83
795,789	142,83
796,225	138,83
796,66	112,83
797,096	135,83
797,532	122,83
797,968	124,83
798,403	131,83
798,839	138,83
799,275	140,83
799,71	136,83
800,146	123,83
800,581	133,83
801,017	106,83
801,452	113,83
801,888	149,83
802,323	143,83
802,759	122,83
803,194	126,83
803,629	128,83
804,065	118,83
804,5	145,83
804,935	130,83
805,37	124,83
805,806	117,83
806,241	122,83
806,676	153,83
807,111	100,83
807,546	119,83
807,981	134,83
808,416	132,83
808,851	129,83
809,286	120,83
809,721	123,83
810,156	132,83
810,591	129,83
811,026	140,83
811,46	118,83
811,895	125,83
812,33	94,83
812,765	114,83
813,199	107,83
813,634	131,83
814,069	125,83
814,503	119,83
814,938	179,83
815,373	138,83
815,807	116,83
816,242	153,83
816,676	129,83
817,111	129,83
817,545	115,83
817,979	135,83
818,414	148,83
818,848	139,83
819,282	150,83
819,717	112,83
820,151	128,83
820,585	114,83
821,019	140,83
821,453	124,83
821,888	109,83
822,322	126,83
822,756	161,83
823,19	128,83
823,624	109,83
824,058	116,83
824,492	139,83
824,926	122,83
825,36	120,83
825,794	125,83
826,227	127,83
826,661	121,83
827,095	134,83
827,529	148,83
827,962	147,83
828,396	123,83
828,83	113,83
829,263	124,83
829,697	134,83
830,131	111,83
830,564	121,83
830,998	108,83
831,431	149,83
831,865	129,83
832,298	107,83
832,732	136,83
833,165	117,83
833,598	127,83
834,032	128,83
834,465	133,83
834,898	127,83
835,331	124,83
835,765	117,83
836,198	96,83
836,631	119,83
837,064	123,83
837,497	127,83
837,93	131,83
838,363	104,83
838,796	126,83
839,229	117,83
839,662	128,83
840,095	119,83
840,528	119,83
840,961	122,83
841,394	93,83
841,827	117,83
842,259	133,83
842,692	109,83
843,125	138,83
843,558	116,83
843,99	131,83
844,423	99,83
844,855	122,83
845,288	136,83
845,721	136,83
846,153	98,83
846,586	111,83
847,018	139,83
847,45	114,83
847,883	118,83
848,315	141,83
848,748	118,83
849,18	113,83
849,612	117,83
850,044	127,83
850,477	134,83
850,909	138,83
851,341	110,83
851,773	117,83
852,205	106,83
852,637	118,83
853,069	103,83
853,501	108,83
853,933	126,83
854,365	100,83
854,797	180,83
855,229	102,83
855,661	118,83
856,093	117,83
856,525	100,83
856,957	122,83
857,388	128,83
857,82	110,83
858,252	130,83
858,683	110,83
859,115	130,83
859,547	91,83
859,978	109,83
860,41	104,83
860,841	118,83
861,273	119,83
861,704	119,83
862,136	115,83
862,567	121,83
862,999	125,83
863,43	144,83
863,861	118,83
864,293	133,83
864,724	160,83
865,155	102,83
865,586	97,83
866,017	105,83
866,449	117,83
866,88	109,83
867,311	124,83
867,742	120,83
868,173	96,83
868,604	108,83
869,035	111,83
869,466	113,83
869,897	117,83
870,328	108,83
870,759	104,83
871,189	118,83
871,62	128,83
872,051	99,83
872,482	113,83
872,912	118,83
873,343	102,83
873,774	118,83
874,204	95,83
874,635	130,83
875,066	107,83
875,496	96,83
875,927	108,83
876,357	120,83
876,788	99,83
877,218	110,83
877,648	113,83
878,079	138,83
878,509	103,83
878,939	117,83
879,37	116,83
879,8	118,83
880,23	118,83
880,66	123,83
881,091	121,83
881,521	124,83
881,951	123,83
882,381	126,83
882,811	112,83
883,241	116,83
883,671	98,83
884,101	104,83
884,531	124,83
884,961	117,83
885,391	113,83
885,82	123,83
886,25	100,83
886,68	108,83
887,11	111,83
887,539	113,83
887,969	116,83
888,399	119,83
888,828	119,83
889,258	102,83
889,688	116,83
890,117	96,83
890,547	114,83
890,976	140,83
891,406	123,83
891,835	126,83
892,264	129,83
892,694	87,83
893,123	128,83
893,553	116,83
893,982	98,83
894,411	122,83
894,84	118,83
895,269	121,83
895,699	95,83
896,128	112,83
896,557	133,83
896,986	119,83
897,415	112,83
897,844	118,83
898,273	113,83
898,702	116,83
899,131	131,83
899,56	102,83
899,989	116,83
900,418	116,83
900,846	102,83
901,275	118,83
901,704	109,83
902,133	109,83
902,561	122,83
902,99	137,83
903,419	99,83
903,847	102,83
904,276	120,83
904,704	107,83
905,133	120,83
905,561	101,83
905,99	124,83
906,418	109,83
906,847	132,83
907,275	109,83
907,704	123,83
908,132	127,83
908,56	132,83
908,988	119,83
909,417	100,83
909,845	96,83
910,273	117,83
910,701	133,83
911,129	111,83
911,557	133,83
911,985	125,83
912,413	125,83
912,841	102,83
913,269	121,83
913,697	101,83
914,125	120,83
914,553	120,83
914,981	116,83
915,409	118,83
915,837	117,83
916,264	113,83
916,692	102,83
917,12	89,83
917,547	124,83
917,975	114,83
918,403	120,83
918,83	96,83
919,258	106,83
919,685	116,83
920,113	101,83
920,54	115,83
920,968	136,83
921,395	109,83
921,823	136,83
922,25	110,83
922,677	108,83
923,104	80,83
923,532	121,83
923,959	128,83
924,386	122,83
924,813	125,83
925,24	112,83
925,668	102,83
926,095	105,83
926,522	108,83
926,949	131,83
927,376	114,83
927,803	116,83
928,23	120,83
928,657	119,83
929,083	97,83
929,51	110,83
929,937	115,83
930,364	100,83
930,791	113,83
931,217	109,83
931,644	144,83
932,071	120,83
932,497	105,83
932,924	100,83
933,351	95,83
933,777	143,83
934,204	130,83
934,63	117,83
935,057	103,83
935,483	115,83
935,909	116,83
936,336	112,83
936,762	106,83
937,188	107,83
937,615	105,83
938,041	133,83
938,467	113,83
938,893	114,83
939,32	138,83
939,746	119,83
940,172	142,83
940,598	146,83
941,024	141,83
941,45	122,83
941,876	117,83
942,302	105,83
942,728	121,83
943,154	126,83
943,58	108,83
944,005	96,83
944,431	109,83
944,857	114,83
945,283	105,83
945,709	138,83
946,134	108,83
946,56	120,83
946,986	120,83
947,411	100,83
947,837	106,83
948,262	119,83
948,688	125,83
949,113	104,83
949,539	108,83
949,964	113,83
950,39	122,83
950,815	117,83
951,24	119,83
951,666	112,83
952,091	128,83
952,516	122,83
952,941	106,83
953,367	126,83
953,792	118,83
954,217	115,83
954,642	112,83
955,067	108,83
955,492	126,83
955,917	124,83
956,342	106,83
956,767	117,83
957,192	132,83
957,617	92,83
958,042	103,83
958,466	137,83
958,891	126,83
959,316	96,83
959,741	117,83
960,166	97,83
960,59	102,83
961,015	110,83
961,439	98,83
961,864	126,83
962,289	99,83
962,713	111,83
963,138	131,83
963,562	145,83
963,987	106,83
964,411	118,83
964,835	129,83
965,26	108,83
965,684	118,83
966,108	97,83
966,533	122,83
966,957	103,83
967,381	113,83
967,805	113,83
968,229	107,83
968,654	115,83
969,078	108,83
969,502	104,83
969,926	104,83
970,35	118,83
970,774	84,83
971,198	109,83
971,622	111,83
972,045	100,83
972,469	131,83
972,893	119,83
973,317	112,83
973,741	118,83
974,164	114,83
974,588	108,83
975,012	105,83
975,435	110,83
975,859	126,83
976,283	107,83
976,706	124,83
977,13	109,83
977,553	110,83
977,977	115,83
978,4	107,83
978,824	138,83
979,247	105,83
979,67	121,83
980,094	121,83
980,517	125,83
980,94	111,83
981,363	115,83
981,786	111,83
982,21	103,83
982,633	121,83
983,056	117,83
983,479	113,83
983,902	102,83
984,325	116,83
984,748	116,83
985,171	124,83
985,594	112,83
986,017	106,83
986,44	98,83
986,863	126,83
987,285	99,83
987,708	142,83
988,131	111,83
988,554	109,83
988,976	112,83
989,399	131,83
989,822	150,83
990,244	135,83
990,667	104,83
991,089	130,83
991,512	116,83
991,934	115,83
992,357	144,83
992,779	108,83
993,201	121,83
993,624	110,83
994,046	118,83
994,468	137,83
994,891	144,83
995,313	107,83
995,735	112,83
996,157	101,83
996,579	123,83
997,002	126,83
997,424	140,83
997,846	113,83
998,268	108,83
998,69	107,83
999,112	109,83
999,534	113,83
999,956	109,83
1000,377	116,83
1000,799	119,83
1001,221	118,83
1001,643	120,83
1002,065	111,83
1002,486	129,83
1002,908	140,83
1003,33	111,83
1003,751	121,83
1004,173	112,83
1004,595	109,83
1005,016	117,83
1005,438	106,83
1005,859	112,83
1006,281	108,83
1006,702	121,83
1007,123	120,83
1007,545	114,83
1007,966	118,83
1008,387	116,83
1008,809	114,83
1009,23	109,83
1009,651	127,83
1010,072	120,83
1010,494	106,83
1010,915	97,83
1011,336	123,83
1011,757	107,83
1012,178	108,83
1012,599	116,83
1013,02	128,83
1013,441	87,83
1013,862	112,83
1014,283	102,83
1014,703	107,83
1015,124	106,83
1015,545	132,83
1015,966	106,83
1016,387	124,83
1016,807	117,83
1017,228	112,83
1017,649	97,83
1018,069	117,83
1018,49	121,83
1018,91	136,83
1019,331	124,83
1019,751	113,83
1020,172	120,83
1020,592	106,83
1021,013	117,83
1021,433	112,83
1021,853	114,83
1022,274	106,83
1022,694	107,83
1023,114	118,83
1023,535	112,83
1023,955	112,83
1024,375	96,83
1024,795	98,83
1025,215	108,83
1025,635	110,83
1026,055	131,83
1026,475	105,83
1026,895	123,83
1027,315	144,83
1027,735	129,83
1028,155	104,83
1028,575	110,83
1028,995	112,83
1029,414	105,83
1029,834	124,83
1030,254	116,83
1030,674	113,83
1031,093	102,83
1031,513	140,83
1031,933	119,83
1032,352	109,83
1032,772	90,83
1033,191	141,83
1033,611	115,83
1034,03	117,83
1034,45	107,83
1034,869	127,83
1035,289	101,83
1035,708	133,83
1036,127	108,83
1036,546	106,83
1036,966	136,83
1037,385	118,83
1037,804	106,83
1038,223	143,83
1038,642	116,83
1039,062	133,83
1039,481	110,83
1039,9	114,83
1040,319	119,83
1040,738	132,83
1041,157	101,83
1041,576	113,83
1041,994	98,83
1042,413	118,83
1042,832	115,83
1043,251	124,83
1043,67	130,83
1044,088	109,83
1044,507	127,83
1044,926	124,83
1045,345	121,83
1045,763	119,83
1046,182	110,83
1046,6	129,83
1047,019	104,83
1047,437	129,83
1047,856	105,83
1048,274	119,83
1048,693	110,83
1049,111	131,83
1049,529	112,83
1049,948	131,83
1050,366	128,83
1050,784	95,83
1051,202	124,83
1051,621	136,83
1052,039	130,83
1052,457	128,83
1052,875	83,83
1053,293	121,83
1053,711	118,83
1054,129	118,83
1054,547	109,83
1054,965	100,83
1055,383	123,83
1055,801	109,83
1056,219	100,83
1056,637	139,83
1057,054	117,83
1057,472	101,83
1057,89	134,83
1058,308	118,83
1058,725	121,83
1059,143	101,83
1059,561	136,83
1059,978	132,83
1060,396	122,83
1060,813	117,83
1061,231	149,83
1061,648	118,83
1062,066	105,83
1062,483	114,83
1062,9	106,83
1063,318	154,83
1063,735	109,83
1064,152	128,83
1064,57	100,83
1064,987	108,83
1065,404	102,83
1065,821	116,83
1066,238	96,83
1066,655	104,83
1067,073	122,83
1067,49	98,83
1067,907	122,83
1068,324	132,83
1068,741	96,83
1069,157	112,83
1069,574	105,83
1069,991	115,83
1070,408	119,83
1070,825	128,83
1071,242	138,83
1071,658	98,83
1072,075	137,83
1072,492	99,83
1072,908	121,83
1073,325	109,83
1073,742	96,83
1074,158	114,83
1074,575	119,83
1074,991	101,83
1075,408	124,83
1075,824	144,83
1076,24	93,83
1076,657	110,83
1077,073	122,83
1077,489	101,83
1077,906	103,83
1078,322	116,83
1078,738	110,83
1079,154	114,83
1079,571	114,83
1079,987	100,83
1080,403	111,83
1080,819	152,83
1081,235	140,83
1081,651	118,83
1082,067	100,83
1082,483	116,83
1082,899	107,83
1083,315	118,83
1083,73	127,83
1084,146	125,83
1084,562	112,83
1084,978	128,83
1085,394	118,83
1085,809	126,83
1086,225	104,83
1086,641	111,83
1087,056	102,83
1087,472	104,83
1087,887	113,83
1088,303	127,83
1088,718	124,83
1089,134	131,83
1089,549	117,83
1089,965	114,83
1090,38	97,83
1090,795	135,83
1091,21	126,83
1091,626	113,83
1092,041	106,83
1092,456	104,83
1092,871	114,83
1093,287	127,83
1093,702	123,83
1094,117	90,83
1094,532	119,83
1094,947	113,83
1095,362	132,83
1095,777	103,83
1096,192	109,83
1096,607	179,83
1097,021	118,83
1097,436	146,83
1097,851	107,83
1098,266	107,83
1098,681	127,83
1099,095	87,83
1099,51	134,83
1099,925	112,83
1100,339	125,83
1100,754	101,83
1101,168	92,83
1101,583	111,83
1101,998	115,83
1102,412	128,83
1102,826	96,83
1103,241	95,83
1103,655	114,83
1104,07	112,83
1104,484	107,83
1104,898	115,83
1105,312	90,83
1105,727	109,83
1106,141	94,83
1106,555	103,83
1106,969	108,83
1107,383	101,83
1107,797	97,83
1108,211	100,83
1108,625	109,83
1109,039	106,83
1109,453	102,83
1109,867	95,83
1110,281	85,83
1110,695	88,83
1111,109	94,83
1111,523	81,83
1111,936	89,83
1112,35	69,83
1112,764	86,83
1113,177	60,83
1113,591	69,83
1114,005	69,83
1114,418	-3,17
1114,832	-1,17
1115,245	-5,17
1115,659	-5,17
