Data from 298_Subt2__1__15-28-44-243.txt Node

Date: Fri Oct 27 15:28:44 MSK 2023
User: mishev
Spectrometer: MAYP115646
Trigger mode: 0
Integration Time (sec): 5,000000E-2
Scans to average: 1
Electric dark correction enabled: true
Nonlinearity correction enabled: false
Boxcar width: 0
XAxis mode: Wavelengths
Number of Pixels in Spectrum: 2068
>>>>>Begin Spectral Data<<<<<
199,511	4
199,981	-6
200,452	4
200,923	-6
201,394	-4
201,865	5
202,335	17
202,806	4
203,277	-2
203,748	22
204,218	4
204,689	3
205,159	18
205,63	11
206,101	1
206,571	10
207,042	6
207,512	8
207,983	10
208,453	6
208,923	5
209,394	21
209,864	4
210,335	18
210,805	6
211,275	9
211,745	17
212,216	6
212,686	2
213,156	13
213,626	7
214,096	5
214,566	1
215,037	16
215,507	20
215,977	-1
216,447	7
216,917	10
217,387	3
217,857	7
218,326	21
218,796	8
219,266	-2
219,736	17
220,206	6
220,676	7
221,145	11
221,615	1
222,085	8
222,555	6
223,024	10
223,494	12
223,964	12
224,433	6
224,903	3
225,372	-5
225,842	7
226,311	5
226,781	14
227,25	20
227,72	6
228,189	3
228,658	-6
229,128	4
229,597	3
230,066	4
230,536	4
231,005	3
231,474	7
231,943	11
232,412	16
232,881	16
233,351	-4
233,82	13
234,289	6
234,758	5
235,227	11
235,696	3
236,165	14
236,634	6
237,103	6
237,572	17
238,04	6
238,509	25
238,978	2
239,447	9
239,916	6
240,384	-2
240,853	18
241,322	11
241,79	-7
242,259	-4
242,728	13
243,196	9
243,665	11
244,133	9
244,602	15
245,07	3
245,539	7
246,007	11
246,476	13
246,944	18
247,413	3
247,881	21
248,349	15
248,817	8
249,286	15
249,754	14
250,222	8
250,69	2
251,159	20
251,627	6
252,095	16
252,563	9
253,031	15
253,499	10
253,967	7
254,435	3
254,903	6
255,371	16
255,839	6
256,307	19
256,775	5
257,242	3
257,71	7
258,178	-1
258,646	2
259,114	18
259,581	12
260,049	9
260,517	-8
260,984	16
261,452	0
261,919	12
262,387	-4
262,855	20
263,322	19
263,79	15
264,257	10
264,724	5
265,192	11
265,659	14
266,127	15
266,594	2
267,061	4
267,529	3
267,996	13
268,463	14
268,93	23
269,397	3
269,865	-1
270,332	7
270,799	15
271,266	3
271,733	17
272,2	24
272,667	11
273,134	-1
273,601	-7
274,068	0
274,535	1
275,002	22
275,469	5
275,935	16
276,402	13
276,869	4
277,336	8
277,802	6
278,269	16
278,736	-9
279,203	4
279,669	3
280,136	2
280,602	1
281,069	13
281,535	7
282,002	10
282,468	12
282,935	14
283,401	9
283,868	23
284,334	10
284,8	12
285,267	6
285,733	11
286,199	3
286,666	14
287,132	13
287,598	4
288,064	-8
288,53	-3
288,996	26
289,463	7
289,929	34
290,395	10
290,861	6
291,327	13
291,793	5
292,259	23
292,725	23
293,19	11
293,656	-6
294,122	10
294,588	21
295,054	1
295,52	13
295,985	14
296,451	6
296,917	12
297,382	25
297,848	-1
298,314	13
298,779	1
299,245	3
299,71	19
300,176	14
300,641	12
301,107	19
301,572	12
302,038	14
302,503	23
302,968	15
303,434	6
303,899	13
304,364	13
304,83	12
305,295	23
305,76	2
306,225	1
306,69	32
307,156	5
307,621	18
308,086	18
308,551	18
309,016	3
309,481	5
309,946	-3
310,411	14
310,876	6
311,341	13
311,806	1
312,27	13
312,735	12
313,2	6
313,665	7
314,13	10
314,594	18
315,059	23
315,524	11
315,988	7
316,453	18
316,918	13
317,382	12
317,847	10
318,311	17
318,776	11
319,24	12
319,705	13
320,169	27
320,634	28
321,098	13
321,562	20
322,027	8
322,491	8
322,955	13
323,419	5
323,884	7
324,348	8
324,812	16
325,276	11
325,74	11
326,204	7
326,668	3
327,132	7
327,596	8
328,06	-4
328,524	7
328,988	10
329,452	23
329,916	7
330,38	6
330,844	12
331,308	12
331,771	9
332,235	2
332,699	15
333,163	28
333,626	24
334,09	1
334,554	6
335,017	17
335,481	9
335,944	24
336,408	19
336,871	18
337,335	24
337,798	13
338,262	17
338,725	17
339,188	13
339,652	0
340,115	17
340,578	13
341,042	15
341,505	1
341,968	10
342,431	6
342,895	-9
343,358	12
343,821	13
344,284	15
344,747	15
345,21	3
345,673	11
346,136	2
346,599	6
347,062	12
347,525	14
347,988	22
348,451	24
348,913	12
349,376	4
349,839	19
350,302	10
350,765	7
351,227	3
351,69	15
352,153	8
352,615	9
353,078	0
353,54	13
354,003	8
354,465	8
354,928	7
355,39	10
355,853	2
356,315	22
356,778	4
357,24	13
357,702	10
358,165	7
358,627	22
359,089	8
359,552	5
360,014	24
360,476	6
360,938	4
361,4	8
361,862	17
362,325	8
362,787	13
363,249	11
363,711	19
364,173	22
364,635	5
365,097	9
365,558	8
366,02	10
366,482	12
366,944	8
367,406	-2
367,868	13
368,329	12
368,791	16
369,253	4
369,714	24
370,176	5
370,638	13
371,099	12
371,561	21
372,022	5
372,484	9
372,945	8
373,407	18
373,868	1
374,33	13
374,791	-3
375,253	6
375,714	3
376,175	16
376,637	4
377,098	17
377,559	1
378,02	1
378,481	7
378,943	5
379,404	1
379,865	8
380,326	14
380,787	9
381,248	9
381,709	8
382,17	-3
382,631	14
383,092	17
383,553	23
384,014	3
384,474	14
384,935	11
385,396	15
385,857	10
386,318	21
386,778	10
387,239	9
387,7	12
388,16	19
388,621	17
389,082	23
389,542	2
390,003	18
390,463	17
390,924	14
391,384	22
391,845	12
392,305	13
392,765	19
393,226	31
393,686	15
394,146	16
394,607	22
395,067	12
395,527	30
395,987	23
396,447	20
396,908	20
397,368	18
397,828	14
398,288	20
398,748	21
399,208	24
399,668	38
400,128	28
400,588	35
401,048	35
401,508	32
401,968	43
402,427	52
402,887	49
403,347	47
403,807	49
404,266	67
404,726	70
405,186	79
405,645	65
406,105	81
406,565	98
407,024	112
407,484	113
407,943	146
408,403	121
408,862	139
409,322	174
409,781	186
410,241	167
410,7	227
411,159	230
411,619	263
412,078	284
412,537	287
412,996	327
413,456	372
413,915	388
414,374	439
414,833	437
415,292	525
415,751	549
416,21	600
416,669	670
417,128	738
417,587	784
418,046	880
418,505	937
418,964	1031
419,423	1084
419,882	1170
420,341	1316
420,799	1372
421,258	1554
421,717	1617
422,176	1737
422,634	1911
423,093	2081
423,552	2174
424,01	2369
424,469	2568
424,927	2689
425,386	2938
425,844	3117
426,303	3406
426,761	3624
427,22	3774
427,678	4093
428,137	4356
428,595	4678
429,053	4941
429,512	5166
429,97	5531
430,428	5886
430,886	6236
431,344	6458
431,803	6826
432,261	7107
432,719	7644
433,177	8114
433,635	8422
434,093	8687
434,551	9055
435,009	9520
435,467	9926
435,925	10273
436,383	10566
436,841	10908
437,299	11394
437,756	11723
438,214	12328
438,672	12704
439,13	13109
439,587	13568
440,045	13851
440,503	14367
440,96	14717
441,418	15438
441,876	15877
442,333	16306
442,791	16946
443,248	17716
443,706	18033
444,163	18230
444,621	19304
445,078	19682
445,535	20104
445,993	20702
446,45	21166
446,907	21588
447,365	21967
447,822	22298
448,279	22544
448,736	22859
449,193	22878
449,651	22918
450,108	22939
450,565	22797
451,022	22430
451,479	22159
451,936	21984
452,393	21403
452,85	20715
453,307	20272
453,764	19487
454,221	18965
454,677	18136
455,134	17675
455,591	16992
456,048	16275
456,505	15491
456,961	14870
457,418	14247
457,875	13678
458,331	12921
458,788	12374
459,244	11914
459,701	11335
460,158	10840
460,614	10614
461,071	10267
461,527	9831
461,983	9682
462,44	9334
462,896	9072
463,353	8864
463,809	8524
464,265	8369
464,721	8099
465,178	7844
465,634	7539
466,09	7416
466,546	7339
467,002	6918
467,458	6862
467,915	6621
468,371	6494
468,827	6359
469,283	6133
469,739	5853
470,195	5760
470,651	5533
471,106	5265
471,562	5166
472,018	5032
472,474	4926
472,93	4743
473,386	4594
473,841	4459
474,297	4352
474,753	4170
475,208	4123
475,664	4054
476,12	3868
476,575	3780
477,031	3726
477,486	3615
477,942	3663
478,397	3532
478,853	3494
479,308	3451
479,763	3385
480,219	3417
480,674	3388
481,13	3375
481,585	3438
482,04	3264
482,495	3310
482,951	3277
483,406	3273
483,861	3332
484,316	3354
484,771	3284
485,226	3355
485,681	3334
486,136	3314
486,591	3365
487,046	3352
487,501	3322
487,956	3410
488,411	3430
488,866	3321
489,321	3463
489,775	3502
490,23	3513
490,685	3574
491,14	3619
491,594	3666
492,049	3778
492,504	3836
492,958	3858
493,413	3918
493,868	3969
494,322	4046
494,777	4218
495,231	4135
495,686	4260
496,14	4320
496,594	4433
497,049	4517
497,503	4624
497,958	4721
498,412	4700
498,866	4866
499,32	4932
499,775	5033
500,229	5173
500,683	5265
501,137	5377
501,591	5396
502,045	5437
502,499	5592
502,953	5716
503,407	5821
503,861	5891
504,315	5986
504,769	6071
505,223	6126
505,677	6193
506,131	6354
506,585	6612
507,039	6590
507,492	6735
507,946	6765
508,4	6893
508,854	6843
509,307	7038
509,761	7126
510,214	7270
510,668	7339
511,122	7377
511,575	7517
512,029	7609
512,482	7820
512,936	7850
513,389	7843
513,842	8051
514,296	8047
514,749	8141
515,202	8256
515,656	8311
516,109	8394
516,562	8437
517,015	8381
517,469	8615
517,922	8712
518,375	8690
518,828	8755
519,281	8789
519,734	8829
520,187	8919
520,64	8934
521,093	8986
521,546	9195
521,999	9176
522,452	9227
522,905	9345
523,358	9307
523,81	9257
524,263	9447
524,716	9519
525,169	9449
525,621	9543
526,074	9526
526,527	9667
526,979	9614
527,432	9757
527,884	9822
528,337	9785
528,789	9864
529,242	9861
529,694	9891
530,147	9858
530,599	9819
531,052	9912
531,504	10006
531,956	10056
532,409	9992
532,861	9975
533,313	9987
533,765	10223
534,218	10079
534,67	10100
535,122	10122
535,574	10154
536,026	10138
536,478	10140
536,93	9996
537,382	10153
537,834	10270
538,286	10000
538,738	10090
539,19	10172
539,642	10157
540,094	10110
540,545	10142
540,997	10227
541,449	10270
541,901	10236
542,352	10098
542,804	10220
543,256	10193
543,707	10276
544,159	10165
544,611	10052
545,062	10315
545,514	10267
545,965	10299
546,417	10239
546,868	10180
547,319	10138
547,771	10203
548,222	10106
548,674	10166
549,125	10194
549,576	10023
550,027	10123
550,479	10152
550,93	10203
551,381	10103
551,832	10143
552,283	10087
552,734	10159
553,185	10202
553,636	10096
554,087	10001
554,538	10088
554,989	9949
555,44	10030
555,891	10117
556,342	10095
556,793	10097
557,244	9978
557,694	9930
558,145	9862
558,596	9960
559,047	9962
559,497	9990
559,948	9974
560,399	9886
560,849	9993
561,3	9834
561,75	9807
562,201	9866
562,651	9889
563,102	9693
563,552	9786
564,003	9784
564,453	9731
564,903	9805
565,354	9786
565,804	9654
566,254	9679
566,705	9674
567,155	9588
567,605	9560
568,055	9713
568,505	9676
568,955	9402
569,405	9607
569,856	9520
570,306	9618
570,756	9434
571,206	9416
571,656	9271
572,105	9317
572,555	9266
573,005	9231
573,455	9378
573,905	9345
574,355	9257
574,804	9227
575,254	9207
575,704	9153
576,154	9168
576,603	9207
577,053	9122
577,502	8931
577,952	9116
578,402	9062
578,851	9096
579,301	8999
579,75	9086
580,199	8864
580,649	8802
581,098	8889
581,548	8803
581,997	8847
582,446	8844
582,895	8765
583,345	8760
583,794	8892
584,243	8651
584,692	8655
585,141	8810
585,591	8626
586,04	8574
586,489	8569
586,938	8518
587,387	8578
587,836	8405
588,285	8439
588,734	8325
589,182	8318
589,631	8296
590,08	8299
590,529	8227
590,978	8226
591,426	8195
591,875	8100
592,324	8191
592,773	8102
593,221	8062
593,67	7931
594,118	7929
594,567	7942
595,016	7894
595,464	7877
595,913	7863
596,361	7675
596,809	7867
597,258	7691
597,706	7635
598,155	7670
598,603	7463
599,051	7541
599,499	7537
599,948	7498
600,396	7404
600,844	7286
601,292	7463
601,74	7426
602,188	7205
602,636	7203
603,085	7133
603,533	7081
603,981	7074
604,429	6990
604,876	6950
605,324	6974
605,772	6889
606,22	6862
606,668	6821
607,116	6831
607,563	6608
608,011	6583
608,459	6586
608,907	6486
609,354	6479
609,802	6417
610,25	6539
610,697	6378
611,145	6286
611,592	6251
612,04	6291
612,487	6165
612,935	6213
613,382	6121
613,829	6014
614,277	6087
614,724	5981
615,171	5903
615,619	5921
616,066	5752
616,513	5790
616,96	5546
617,408	5615
617,855	5656
618,302	5532
618,749	5551
619,196	5423
619,643	5398
620,09	5376
620,537	5278
620,984	5294
621,431	5206
621,878	5149
622,325	5052
622,771	5036
623,218	4977
623,665	5007
624,112	4957
624,559	4891
625,005	4761
625,452	4786
625,899	4716
626,345	4757
626,792	4641
627,238	4727
627,685	4591
628,131	4652
628,578	4464
629,024	4463
629,471	4428
629,917	4426
630,364	4401
630,81	4316
631,256	4241
631,703	4228
632,149	4212
632,595	4142
633,041	4023
633,487	4105
633,934	4032
634,38	4014
634,826	3950
635,272	3859
635,718	3887
636,164	3834
636,61	3811
637,056	3783
637,502	3836
637,948	3706
638,394	3666
638,839	3638
639,285	3707
639,731	3625
640,177	3593
640,623	3517
641,068	3507
641,514	3461
641,96	3409
642,405	3400
642,851	3334
643,296	3309
643,742	3318
644,187	3305
644,633	3278
645,078	3177
645,524	3240
645,969	3252
646,415	3207
646,86	3115
647,305	3053
647,751	3062
648,196	3150
648,641	3072
649,086	3024
649,532	3051
649,977	2982
650,422	2986
650,867	2881
651,312	2857
651,757	2880
652,202	2826
652,647	2825
653,092	2683
653,537	2801
653,982	2735
654,427	2769
654,872	2703
655,316	2719
655,761	2656
656,206	2657
656,651	2688
657,096	2636
657,54	2590
657,985	2556
658,43	2560
658,874	2702
659,319	2584
659,763	2563
660,208	2569
660,652	2516
661,097	2514
661,541	2524
661,986	2379
662,43	2475
662,874	2427
663,319	2370
663,763	2426
664,207	2393
664,651	2426
665,096	2407
665,54	2334
665,984	2308
666,428	2296
666,872	2267
667,316	2344
667,76	2387
668,204	2266
668,648	2231
669,092	2300
669,536	2292
669,98	2275
670,424	2254
670,868	2281
671,312	2282
671,756	2261
672,199	2208
672,643	2274
673,087	2162
673,531	2275
673,974	2213
674,418	2259
674,862	2261
675,305	2240
675,749	2297
676,192	2192
676,636	2264
677,079	2200
677,523	2184
677,966	2193
678,409	2261
678,853	2199
679,296	2279
679,739	2247
680,183	2248
680,626	2260
681,069	2279
681,512	2346
681,955	2253
682,399	2356
682,842	2387
683,285	2371
683,728	2405
684,171	2422
684,614	2467
685,057	2369
685,5	2463
685,943	2530
686,386	2473
686,828	2526
687,271	2601
687,714	2639
688,157	2684
688,6	2708
689,042	2771
689,485	2749
689,928	2850
690,37	2963
690,813	2990
691,255	3105
691,698	3094
692,141	3257
692,583	3259
693,025	3337
693,468	3432
693,91	3540
694,353	3618
694,795	3746
695,237	3872
695,68	3977
696,122	4102
696,564	4204
697,006	4356
697,449	4479
697,891	4442
698,333	4547
698,775	4585
699,217	4661
699,659	4793
700,101	4825
700,543	4859
700,985	4877
701,427	4800
701,869	4869
702,311	4797
702,753	4764
703,195	4635
703,636	4546
704,078	4441
704,52	4378
704,962	4316
705,403	4139
705,845	3974
706,286	3876
706,728	3738
707,17	3562
707,611	3381
708,053	3242
708,494	3186
708,936	3002
709,377	2861
709,819	2709
710,26	2598
710,701	2429
711,143	2353
711,584	2227
712,025	2039
712,466	1938
712,908	1847
713,349	1798
713,79	1716
714,231	1622
714,672	1510
715,113	1488
715,554	1411
715,995	1271
716,436	1228
716,877	1145
717,318	1101
717,759	1077
718,2	1021
718,641	1008
719,082	929
719,522	879
719,963	835
720,404	779
720,844	751
721,285	699
721,726	712
722,166	663
722,607	619
723,048	598
723,488	582
723,929	542
724,369	557
724,81	499
725,25	450
725,69	481
726,131	464
726,571	429
727,011	396
727,452	422
727,892	362
728,332	370
728,772	369
729,212	372
729,653	325
730,093	328
730,533	340
730,973	303
731,413	279
731,853	316
732,293	266
732,733	292
733,173	278
733,613	248
734,052	243
734,492	235
734,932	206
735,372	228
735,812	225
736,251	204
736,691	222
737,131	215
737,57	212
738,01	177
738,449	190
738,889	200
739,329	180
739,768	194
740,208	183
740,647	158
741,086	173
741,526	167
741,965	176
742,404	161
742,844	159
743,283	154
743,722	149
744,161	148
744,601	150
745,04	166
745,479	135
745,918	134
746,357	148
746,796	129
747,235	131
747,674	140
748,113	137
748,552	138
748,991	126
749,43	123
749,869	106
750,307	127
750,746	113
751,185	105
751,624	114
752,062	109
752,501	109
752,94	101
753,378	101
753,817	108
754,255	113
754,694	107
755,132	93
755,571	108
756,009	105
756,448	109
756,886	83
757,325	97
757,763	86
758,201	93
758,639	85
759,078	94
759,516	85
759,954	70
760,392	74
760,83	91
761,268	97
761,707	83
762,145	74
762,583	64
763,021	81
763,459	75
763,896	80
764,334	68
764,772	67
765,21	66
765,648	53
766,086	78
766,524	83
766,961	60
767,399	70
767,837	59
768,274	69
768,712	47
769,149	59
769,587	55
770,025	49
770,462	41
770,9	56
771,337	63
771,774	69
772,212	57
772,649	44
773,087	46
773,524	60
773,961	64
774,398	57
774,836	49
775,273	56
775,71	62
776,147	56
776,584	51
777,021	41
777,458	50
777,895	62
778,332	40
778,769	31
779,206	54
779,643	42
780,08	30
780,517	54
780,954	42
781,391	47
781,827	58
782,264	47
782,701	41
783,137	42
783,574	41
784,011	32
784,447	43
784,884	32
785,32	50
785,757	24
786,193	42
786,63	37
787,066	45
787,503	30
787,939	33
788,375	47
788,812	22
789,248	35
789,684	21
790,12	37
790,557	35
790,993	18
791,429	36
791,865	24
792,301	41
792,737	35
793,173	29
793,609	11
794,045	32
794,481	29
794,917	26
795,353	33
795,789	27
796,225	13
796,66	19
797,096	21
797,532	27
797,968	34
798,403	27
798,839	24
799,275	21
799,71	23
800,146	33
800,581	28
801,017	31
801,452	23
801,888	43
802,323	22
802,759	27
803,194	32
803,629	24
804,065	28
804,5	30
804,935	27
805,37	17
805,806	19
806,241	31
806,676	28
807,111	30
807,546	15
807,981	30
808,416	16
808,851	21
809,286	24
809,721	22
810,156	40
810,591	31
811,026	22
811,46	22
811,895	24
812,33	19
812,765	22
813,199	32
813,634	21
814,069	23
814,503	19
814,938	27
815,373	20
815,807	26
816,242	23
816,676	37
817,111	6
817,545	22
817,979	26
818,414	16
818,848	16
819,282	27
819,717	11
820,151	22
820,585	19
821,019	14
821,453	21
821,888	19
822,322	12
822,756	14
823,19	5
823,624	14
824,058	30
824,492	0
824,926	26
825,36	12
825,794	5
826,227	27
826,661	2
827,095	18
827,529	10
827,962	4
828,396	11
828,83	3
829,263	8
829,697	26
830,131	24
830,564	5
830,998	16
831,431	29
831,865	16
832,298	12
832,732	8
833,165	11
833,598	6
834,032	22
834,465	17
834,898	3
835,331	8
835,765	12
836,198	26
836,631	10
837,064	8
837,497	7
837,93	14
838,363	15
838,796	7
839,229	5
839,662	7
840,095	14
840,528	9
840,961	19
841,394	16
841,827	8
842,259	-9
842,692	11
843,125	14
843,558	13
843,99	10
844,423	21
844,855	6
845,288	13
845,721	3
846,153	17
846,586	19
847,018	6
847,45	21
847,883	18
848,315	18
848,748	11
849,18	6
849,612	11
850,044	20
850,477	11
850,909	11
851,341	19
851,773	11
852,205	0
852,637	19
853,069	19
853,501	6
853,933	8
854,365	26
854,797	-4
855,229	-5
855,661	3
856,093	5
856,525	5
856,957	15
857,388	12
857,82	8
858,252	16
858,683	12
859,115	8
859,547	1
859,978	19
860,41	-4
860,841	27
861,273	17
861,704	2
862,136	9
862,567	15
862,999	12
863,43	11
863,861	7
864,293	6
864,724	4
865,155	-6
865,586	10
866,017	-2
866,449	11
866,88	8
867,311	14
867,742	0
868,173	16
868,604	22
869,035	16
869,466	-5
869,897	10
870,328	-1
870,759	3
871,189	1
871,62	-9
872,051	17
872,482	-5
872,912	17
873,343	4
873,774	12
874,204	11
874,635	4
875,066	-3
875,496	7
875,927	6
876,357	10
876,788	9
877,218	4
877,648	14
878,079	11
878,509	-4
878,939	-5
879,37	-2
879,8	0
880,23	1
880,66	1
881,091	16
881,521	13
881,951	8
882,381	8
882,811	-2
883,241	-2
883,671	-3
884,101	1
884,531	11
884,961	4
885,391	9
885,82	1
886,25	-2
886,68	9
887,11	1
887,539	5
887,969	13
888,399	10
888,828	-9
889,258	0
889,688	3
890,117	7
890,547	-4
890,976	12
891,406	12
891,835	0
892,264	-15
892,694	14
893,123	-4
893,553	14
893,982	9
894,411	-2
894,84	-1
895,269	-3
895,699	3
896,128	6
896,557	1
896,986	-1
897,415	-8
897,844	17
898,273	9
898,702	3
899,131	11
899,56	0
899,989	10
900,418	13
900,846	6
901,275	4
901,704	-3
902,133	9
902,561	15
902,99	6
903,419	0
903,847	-1
904,276	17
904,704	14
905,133	2
905,561	11
905,99	6
906,418	4
906,847	-2
907,275	-5
907,704	3
908,132	7
908,56	-2
908,988	-3
909,417	15
909,845	7
910,273	3
910,701	-2
911,129	18
911,557	14
911,985	17
912,413	17
912,841	1
913,269	-4
913,697	19
914,125	1
914,553	4
914,981	-11
915,409	2
915,837	-5
916,264	15
916,692	4
917,12	2
917,547	15
917,975	8
918,403	11
918,83	3
919,258	15
919,685	10
920,113	14
920,54	17
920,968	10
921,395	-1
921,823	-2
922,25	4
922,677	13
923,104	13
923,532	14
923,959	-1
924,386	1
924,813	7
925,24	-1
925,668	4
926,095	8
926,522	5
926,949	-5
927,376	-5
927,803	-1
928,23	-2
928,657	-2
929,083	4
929,51	-8
929,937	-4
930,364	8
930,791	3
931,217	5
931,644	17
932,071	1
932,497	10
932,924	6
933,351	7
933,777	12
934,204	3
934,63	-3
935,057	2
935,483	5
935,909	10
936,336	5
936,762	1
937,188	11
937,615	1
938,041	9
938,467	1
938,893	-5
939,32	2
939,746	6
940,172	-2
940,598	-7
941,024	3
941,45	-7
941,876	6
942,302	1
942,728	8
943,154	-7
943,58	16
944,005	4
944,431	-14
944,857	-1
945,283	1
945,709	-4
946,134	10
946,56	0
946,986	5
947,411	-2
947,837	-4
948,262	-5
948,688	3
949,113	4
949,539	-1
949,964	10
950,39	5
950,815	5
951,24	0
951,666	-7
952,091	5
952,516	-2
952,941	2
953,367	3
953,792	8
954,217	0
954,642	-1
955,067	1
955,492	11
955,917	11
956,342	6
956,767	10
957,192	4
957,617	17
958,042	-3
958,466	-7
958,891	13
959,316	10
959,741	-14
960,166	11
960,59	6
961,015	-4
961,439	21
961,864	-3
962,289	10
962,713	-2
963,138	1
963,562	-3
963,987	7
964,411	12
964,835	-6
965,26	-6
965,684	15
966,108	-2
966,533	10
966,957	-4
967,381	-2
967,805	0
968,229	16
968,654	-7
969,078	9
969,502	9
969,926	-2
970,35	10
970,774	8
971,198	1
971,622	10
972,045	16
972,469	9
972,893	-8
973,317	-3
973,741	19
974,164	-6
974,588	16
975,012	11
975,435	8
975,859	-1
976,283	6
976,706	7
977,13	6
977,553	18
977,977	4
978,4	-10
978,824	18
979,247	-3
979,67	-1
980,094	-4
980,517	16
980,94	10
981,363	3
981,786	4
982,21	0
982,633	4
983,056	2
983,479	4
983,902	8
984,325	6
984,748	7
985,171	9
985,594	-5
986,017	13
986,44	-6
986,863	10
987,285	14
987,708	-4
988,131	-3
988,554	1
988,976	10
989,399	-9
989,822	16
990,244	-3
990,667	-2
991,089	6
991,512	6
991,934	14
992,357	6
992,779	6
993,201	-2
993,624	8
994,046	-3
994,468	0
994,891	-8
995,313	9
995,735	-4
996,157	7
996,579	6
997,002	-1
997,424	15
997,846	6
998,268	1
998,69	1
999,112	6
999,534	1
999,956	7
1000,377	3
1000,799	12
1001,221	1
1001,643	3
1002,065	-7
1002,486	1
1002,908	-8
1003,33	-1
1003,751	10
1004,173	-7
1004,595	7
1005,016	10
1005,438	-1
1005,859	4
1006,281	5
1006,702	17
1007,123	6
1007,545	11
1007,966	9
1008,387	13
1008,809	8
1009,23	13
1009,651	9
1010,072	10
1010,494	8
1010,915	-4
1011,336	3
1011,757	2
1012,178	2
1012,599	5
1013,02	-1
1013,441	14
1013,862	5
1014,283	-2
1014,703	7
1015,124	-1
1015,545	-2
1015,966	-3
1016,387	8
1016,807	11
1017,228	-1
1017,649	7
1018,069	8
1018,49	1
1018,91	16
1019,331	-8
1019,751	11
1020,172	-4
1020,592	6
1021,013	3
1021,433	-1
1021,853	3
1022,274	-1
1022,694	-1
1023,114	2
1023,535	-1
1023,955	-2
1024,375	-4
1024,795	1
1025,215	0
1025,635	9
1026,055	9
1026,475	-5
1026,895	-2
1027,315	-10
1027,735	-1
1028,155	-7
1028,575	10
1028,995	-3
1029,414	1
1029,834	-11
1030,254	2
1030,674	4
1031,093	4
1031,513	-7
1031,933	8
1032,352	3
1032,772	15
1033,191	2
1033,611	-1
1034,03	1
1034,45	10
1034,869	-6
1035,289	2
1035,708	-3
1036,127	7
1036,546	4
1036,966	17
1037,385	6
1037,804	3
1038,223	-2
1038,642	7
1039,062	-8
1039,481	11
1039,9	6
1040,319	-6
1040,738	3
1041,157	3
1041,576	-4
1041,994	4
1042,413	0
1042,832	2
1043,251	11
1043,67	2
1044,088	11
1044,507	3
1044,926	4
1045,345	-12
1045,763	16
1046,182	6
1046,6	13
1047,019	4
1047,437	3
1047,856	-10
1048,274	11
1048,693	12
1049,111	15
1049,529	7
1049,948	-3
1050,366	-1
1050,784	5
1051,202	1
1051,621	13
1052,039	-6
1052,457	-3
1052,875	1
1053,293	10
1053,711	0
1054,129	8
1054,547	-9
1054,965	11
1055,383	-13
1055,801	0
1056,219	-4
1056,637	3
1057,054	-12
1057,472	0
1057,89	-6
1058,308	-10
1058,725	7
1059,143	5
1059,561	-13
1059,978	15
1060,396	-5
1060,813	3
1061,231	-7
1061,648	7
1062,066	2
1062,483	-10
1062,9	6
1063,318	-1
1063,735	13
1064,152	2
1064,57	17
1064,987	-1
1065,404	-4
1065,821	6
1066,238	13
1066,655	-1
1067,073	5
1067,49	3
1067,907	18
1068,324	-5
1068,741	2
1069,157	2
1069,574	14
1069,991	4
1070,408	-1
1070,825	2
1071,242	5
1071,658	4
1072,075	3
1072,492	26
1072,908	-1
1073,325	1
1073,742	3
1074,158	2
1074,575	9
1074,991	-5
1075,408	8
1075,824	13
1076,24	6
1076,657	-14
1077,073	-2
1077,489	-8
1077,906	1
1078,322	15
1078,738	-10
1079,154	-5
1079,571	0
1079,987	0
1080,403	-4
1080,819	15
1081,235	1
1081,651	6
1082,067	-6
1082,483	-5
1082,899	-5
1083,315	1
1083,73	-2
1084,146	4
1084,562	8
1084,978	3
1085,394	10
1085,809	6
1086,225	8
1086,641	-5
1087,056	1
1087,472	1
1087,887	-3
1088,303	7
1088,718	8
1089,134	4
1089,549	5
1089,965	7
1090,38	-2
1090,795	8
1091,21	14
1091,626	8
1092,041	9
1092,456	6
1092,871	11
1093,287	13
1093,702	7
1094,117	-3
1094,532	-6
1094,947	6
1095,362	-2
1095,777	10
1096,192	-9
1096,607	4
1097,021	0
1097,436	1
1097,851	2
1098,266	15
1098,681	-9
1099,095	2
1099,51	9
1099,925	6
1100,339	5
1100,754	3
1101,168	6
1101,583	13
1101,998	5
1102,412	-2
1102,826	3
1103,241	1
1103,655	6
1104,07	-3
1104,484	-3
1104,898	12
1105,312	9
1105,727	-6
1106,141	11
1106,555	-7
1106,969	-2
1107,383	0
1107,797	8
1108,211	10
1108,625	3
1109,039	5
1109,453	-7
1109,867	6
1110,281	5
1110,695	0
1111,109	8
1111,523	13
1111,936	1
1112,35	-4
1112,764	-2
1113,177	-2
1113,591	2
1114,005	3
1114,418	2
1114,832	-1
1115,245	-4
1115,659	5
