Data from 300_Subt2__0__15-21-37-132.txt Node

Date: Fri Oct 27 15:21:37 MSK 2023
User: mishev
Spectrometer: MAYP115646
Trigger mode: 0
Integration Time (sec): 5,000000E-2
Scans to average: 1
Electric dark correction enabled: true
Nonlinearity correction enabled: false
Boxcar width: 0
XAxis mode: Wavelengths
Number of Pixels in Spectrum: 2068
>>>>>Begin Spectral Data<<<<<
199,511	-1
199,981	6
200,452	6
200,923	2
201,394	-10
201,865	4
202,335	1
202,806	8
203,277	11
203,748	2
204,218	-8
204,689	8
205,159	3
205,63	-3
206,101	7
206,571	-3
207,042	-1
207,512	0
207,983	4
208,453	3
208,923	-2
209,394	-2
209,864	1
210,335	7
210,805	1
211,275	-2
211,745	7
212,216	-5
212,686	-1
213,156	8
213,626	6
214,096	2
214,566	1
215,037	12
215,507	-5
215,977	1
216,447	-4
216,917	1
217,387	-11
217,857	2
218,326	0
218,796	-6
219,266	4
219,736	-4
220,206	-2
220,676	-4
221,145	6
221,615	-3
222,085	-6
222,555	4
223,024	6
223,494	8
223,964	2
224,433	2
224,903	7
225,372	-6
225,842	-7
226,311	2
226,781	-1
227,25	6
227,72	-6
228,189	3
228,658	9
229,128	-3
229,597	-1
230,066	0
230,536	-12
231,005	0
231,474	8
231,943	3
232,412	-3
232,881	6
233,351	6
233,82	-7
234,289	0
234,758	-15
235,227	-12
235,696	7
236,165	-5
236,634	-3
237,103	8
237,572	-13
238,04	1
238,509	-11
238,978	-9
239,447	-9
239,916	-4
240,384	5
240,853	10
241,322	-1
241,79	-3
242,259	3
242,728	6
243,196	1
243,665	-13
244,133	-6
244,602	-10
245,07	-4
245,539	5
246,007	-10
246,476	0
246,944	-8
247,413	-11
247,881	10
248,349	2
248,817	6
249,286	7
249,754	-3
250,222	-4
250,69	3
251,159	0
251,627	1
252,095	0
252,563	-4
253,031	1
253,499	11
253,967	1
254,435	0
254,903	-4
255,371	-8
255,839	5
256,307	-7
256,775	-12
257,242	-8
257,71	13
258,178	-7
258,646	-9
259,114	11
259,581	-6
260,049	-5
260,517	2
260,984	7
261,452	-5
261,919	-3
262,387	3
262,855	-1
263,322	10
263,79	4
264,257	6
264,724	7
265,192	3
265,659	-4
266,127	-6
266,594	-5
267,061	3
267,529	6
267,996	13
268,463	-1
268,93	-6
269,397	-8
269,865	7
270,332	16
270,799	5
271,266	8
271,733	13
272,2	-2
272,667	3
273,134	-4
273,601	-7
274,068	0
274,535	-10
275,002	7
275,469	-11
275,935	15
276,402	-4
276,869	-2
277,336	5
277,802	3
278,269	10
278,736	1
279,203	-1
279,669	1
280,136	-7
280,602	-1
281,069	-1
281,535	-9
282,002	-7
282,468	-7
282,935	0
283,401	-18
283,868	0
284,334	-1
284,8	-6
285,267	-2
285,733	-8
286,199	-1
286,666	-4
287,132	1
287,598	7
288,064	-5
288,53	8
288,996	5
289,463	3
289,929	-11
290,395	-6
290,861	-14
291,327	6
291,793	-14
292,259	-18
292,725	8
293,19	-3
293,656	-5
294,122	-14
294,588	2
295,054	2
295,52	-2
295,985	-10
296,451	0
296,917	-1
297,382	-12
297,848	-14
298,314	-1
298,779	4
299,245	4
299,71	4
300,176	4
300,641	-11
301,107	-5
301,572	1
302,038	-1
302,503	-10
302,968	-4
303,434	1
303,899	0
304,364	9
304,83	3
305,295	12
305,76	-7
306,225	-1
306,69	6
307,156	8
307,621	3
308,086	4
308,551	-16
309,016	-4
309,481	5
309,946	-3
310,411	2
310,876	-1
311,341	-7
311,806	10
312,27	-2
312,735	-1
313,2	-11
313,665	-4
314,13	7
314,594	-2
315,059	2
315,524	-2
315,988	1
316,453	2
316,918	3
317,382	1
317,847	9
318,311	15
318,776	3
319,24	7
319,705	-3
320,169	0
320,634	-4
321,098	2
321,562	4
322,027	-1
322,491	2
322,955	-3
323,419	-5
323,884	-6
324,348	6
324,812	-7
325,276	-7
325,74	9
326,204	-10
326,668	5
327,132	-4
327,596	-3
328,06	8
328,524	0
328,988	7
329,452	-10
329,916	-4
330,38	0
330,844	-2
331,308	-1
331,771	2
332,235	0
332,699	6
333,163	-11
333,626	-3
334,09	3
334,554	-1
335,017	6
335,481	-5
335,944	0
336,408	8
336,871	-3
337,335	-2
337,798	1
338,262	-3
338,725	10
339,188	-7
339,652	-8
340,115	-3
340,578	3
341,042	-5
341,505	0
341,968	-3
342,431	4
342,895	4
343,358	-9
343,821	-10
344,284	-7
344,747	-2
345,21	10
345,673	-8
346,136	-2
346,599	-10
347,062	-2
347,525	-1
347,988	-11
348,451	-6
348,913	-11
349,376	5
349,839	-14
350,302	-1
350,765	-3
351,227	-4
351,69	-10
352,153	9
352,615	-3
353,078	4
353,54	-17
354,003	-5
354,465	0
354,928	-11
355,39	-5
355,853	-3
356,315	-6
356,778	-5
357,24	-12
357,702	8
358,165	0
358,627	-5
359,089	6
359,552	-7
360,014	11
360,476	-5
360,938	-4
361,4	8
361,862	16
362,325	-6
362,787	-6
363,249	-13
363,711	10
364,173	-18
364,635	-8
365,097	2
365,558	-3
366,02	-12
366,482	0
366,944	-5
367,406	1
367,868	7
368,329	-2
368,791	8
369,253	6
369,714	-9
370,176	2
370,638	11
371,099	8
371,561	3
372,022	-1
372,484	-4
372,945	2
373,407	6
373,868	-4
374,33	11
374,791	-19
375,253	15
375,714	8
376,175	1
376,637	-7
377,098	-9
377,559	-1
378,02	-12
378,481	2
378,943	4
379,404	-2
379,865	2
380,326	1
380,787	4
381,248	-5
381,709	3
382,17	6
382,631	-3
383,092	4
383,553	1
384,014	-5
384,474	-11
384,935	2
385,396	1
385,857	-2
386,318	-3
386,778	7
387,239	4
387,7	-1
388,16	-9
388,621	-9
389,082	-1
389,542	-2
390,003	-8
390,463	-3
390,924	-8
391,384	3
391,845	8
392,305	-2
392,765	8
393,226	-4
393,686	-13
394,146	4
394,607	-4
395,067	8
395,527	1
395,987	8
396,447	-7
396,908	-2
397,368	6
397,828	-3
398,288	7
398,748	0
399,208	-7
399,668	5
400,128	-6
400,588	2
401,048	15
401,508	-4
401,968	-9
402,427	-12
402,887	5
403,347	1
403,807	-6
404,266	-16
404,726	-16
405,186	7
405,645	-8
406,105	-20
406,565	7
407,024	-3
407,484	-5
407,943	-9
408,403	-4
408,862	-13
409,322	1
409,781	-25
410,241	-36
410,7	-12
411,159	-49
411,619	-10
412,078	-24
412,537	-31
412,996	-27
413,456	-17
413,915	-50
414,374	-10
414,833	-41
415,292	-47
415,751	-29
416,21	-46
416,669	-64
417,128	-77
417,587	-93
418,046	-74
418,505	-81
418,964	-85
419,423	-62
419,882	-78
420,341	-104
420,799	-72
421,258	-107
421,717	-125
422,176	-112
422,634	-153
423,093	-115
423,552	-186
424,01	-200
424,469	-226
424,927	-177
425,386	-268
425,844	-271
426,303	-228
426,761	-264
427,22	-315
427,678	-348
428,137	-244
428,595	-380
429,053	-381
429,512	-330
429,97	-346
430,428	-342
430,886	-473
431,344	-539
431,803	-417
432,261	-511
432,719	-627
433,177	-477
433,635	-526
434,093	-754
434,551	-730
435,009	-813
435,467	-875
435,925	-663
436,383	-771
436,841	-756
437,299	-912
437,756	-804
438,214	-881
438,672	-974
439,13	-933
439,587	-913
440,045	-1329
440,503	-1223
440,96	-1033
441,418	-1053
441,876	-1401
442,333	-1274
442,791	-1207
443,248	-1243
443,706	-1277
444,163	-1365
444,621	-1326
445,078	-1363
445,535	-1815
445,993	-1706
446,45	-1638
446,907	-1571
447,365	-1753
447,822	-1712
448,279	-1622
448,736	-1883
449,193	-1867
449,651	-1795
450,108	-1567
450,565	-1941
451,022	-1656
451,479	-1622
451,936	-1617
452,393	-1646
452,85	-1500
453,307	-1608
453,764	-1538
454,221	-1537
454,677	-1588
455,134	-1274
455,591	-1290
456,048	-1377
456,505	-1252
456,961	-1167
457,418	-915
457,875	-944
458,331	-995
458,788	-990
459,244	-880
459,701	-922
460,158	-869
460,614	-740
461,071	-754
461,527	-679
461,983	-614
462,44	-599
462,896	-734
463,353	-628
463,809	-791
464,265	-727
464,721	-646
465,178	-603
465,634	-570
466,09	-611
466,546	-593
467,002	-444
467,458	-595
467,915	-505
468,371	-501
468,827	-562
469,283	-473
469,739	-445
470,195	-471
470,651	-532
471,106	-395
471,562	-407
472,018	-348
472,474	-334
472,93	-395
473,386	-433
473,841	-430
474,297	-389
474,753	-249
475,208	-370
475,664	-304
476,12	-290
476,575	-284
477,031	-306
477,486	-250
477,942	-320
478,397	-350
478,853	-290
479,308	-238
479,763	-163
480,219	-264
480,674	-240
481,13	-276
481,585	-245
482,04	-278
482,495	-146
482,951	-282
483,406	-257
483,861	-187
484,316	-282
484,771	-262
485,226	-211
485,681	-305
486,136	-192
486,591	-161
487,046	-295
487,501	-264
487,956	-200
488,411	-268
488,866	-224
489,321	-248
489,775	-233
490,23	-409
490,685	-342
491,14	-223
491,594	-243
492,049	-257
492,504	-255
492,958	-195
493,413	-353
493,868	-341
494,322	-375
494,777	-300
495,231	-169
495,686	-234
496,14	-361
496,594	-362
497,049	-369
497,503	-270
497,958	-343
498,412	-312
498,866	-198
499,32	-301
499,775	-313
500,229	-354
500,683	-393
501,137	-313
501,591	-292
502,045	-360
502,499	-411
502,953	-416
503,407	-362
503,861	-456
504,315	-481
504,769	-391
505,223	-406
505,677	-434
506,131	-360
506,585	-307
507,039	-508
507,492	-447
507,946	-578
508,4	-576
508,854	-496
509,307	-549
509,761	-608
510,214	-456
510,668	-598
511,122	-678
511,575	-615
512,029	-567
512,482	-553
512,936	-661
513,389	-550
513,842	-748
514,296	-572
514,749	-646
515,202	-438
515,656	-790
516,109	-473
516,562	-760
517,015	-579
517,469	-805
517,922	-583
518,375	-701
518,828	-733
519,281	-760
519,734	-653
520,187	-686
520,64	-639
521,093	-702
521,546	-912
521,999	-699
522,452	-694
522,905	-627
523,358	-722
523,81	-479
524,263	-783
524,716	-818
525,169	-727
525,621	-761
526,074	-765
526,527	-749
526,979	-846
527,432	-775
527,884	-657
528,337	-857
528,789	-861
529,242	-799
529,694	-951
530,147	-944
530,599	-869
531,052	-811
531,504	-893
531,956	-783
532,409	-793
532,861	-896
533,313	-893
533,765	-896
534,218	-929
534,67	-979
535,122	-953
535,574	-940
536,026	-996
536,478	-933
536,93	-769
537,382	-855
537,834	-683
538,286	-854
538,738	-904
539,19	-1004
539,642	-908
540,094	-792
540,545	-873
540,997	-936
541,449	-1100
541,901	-819
542,352	-886
542,804	-1014
543,256	-867
543,707	-836
544,159	-934
544,611	-893
545,062	-867
545,514	-688
545,965	-876
546,417	-985
546,868	-969
547,319	-964
547,771	-863
548,222	-970
548,674	-869
549,125	-940
549,576	-913
550,027	-977
550,479	-962
550,93	-985
551,381	-1001
551,832	-894
552,283	-857
552,734	-800
553,185	-802
553,636	-915
554,087	-864
554,538	-752
554,989	-899
555,44	-893
555,891	-936
556,342	-898
556,793	-874
557,244	-774
557,694	-781
558,145	-848
558,596	-823
559,047	-689
559,497	-862
559,948	-977
560,399	-843
560,849	-670
561,3	-716
561,75	-673
562,201	-674
562,651	-737
563,102	-781
563,552	-798
564,003	-801
564,453	-889
564,903	-835
565,354	-819
565,804	-698
566,254	-828
566,705	-927
567,155	-883
567,605	-747
568,055	-769
568,505	-699
568,955	-771
569,405	-681
569,856	-733
570,306	-798
570,756	-646
571,206	-805
571,656	-716
572,105	-619
572,555	-844
573,005	-791
573,455	-699
573,905	-701
574,355	-780
574,804	-817
575,254	-721
575,704	-671
576,154	-473
576,603	-782
577,053	-697
577,502	-845
577,952	-721
578,402	-781
578,851	-827
579,301	-694
579,75	-594
580,199	-649
580,649	-723
581,098	-451
581,548	-572
581,997	-650
582,446	-583
582,895	-647
583,345	-661
583,794	-612
584,243	-603
584,692	-615
585,141	-584
585,591	-641
586,04	-538
586,489	-603
586,938	-642
587,387	-617
587,836	-702
588,285	-586
588,734	-707
589,182	-841
589,631	-540
590,08	-575
590,529	-684
590,978	-531
591,426	-441
591,875	-571
592,324	-574
592,773	-594
593,221	-598
593,67	-587
594,118	-428
594,567	-685
595,016	-595
595,464	-508
595,913	-603
596,361	-522
596,809	-518
597,258	-588
597,706	-464
598,155	-541
598,603	-619
599,051	-465
599,499	-567
599,948	-522
600,396	-541
600,844	-606
601,292	-608
601,74	-467
602,188	-676
602,636	-488
603,085	-581
603,533	-462
603,981	-526
604,429	-495
604,876	-679
605,324	-727
605,772	-519
606,22	-592
606,668	-363
607,116	-537
607,563	-448
608,011	-565
608,459	-552
608,907	-591
609,354	-629
609,802	-512
610,25	-458
610,697	-522
611,145	-477
611,592	-448
612,04	-675
612,487	-516
612,935	-616
613,382	-470
613,829	-424
614,277	-462
614,724	-439
615,171	-548
615,619	-504
616,066	-333
616,513	-474
616,96	-417
617,408	-374
617,855	-450
618,302	-455
618,749	-391
619,196	-382
619,643	-447
620,09	-489
620,537	-247
620,984	-327
621,431	-386
621,878	-397
622,325	-452
622,771	-325
623,218	-385
623,665	-445
624,112	-334
624,559	-308
625,005	-332
625,452	-304
625,899	-405
626,345	-226
626,792	-398
627,238	-257
627,685	-318
628,131	-276
628,578	-289
629,024	-315
629,471	-301
629,917	-187
630,364	-242
630,81	-266
631,256	-273
631,703	-215
632,149	-174
632,595	-223
633,041	-212
633,487	-180
633,934	-155
634,38	-223
634,826	-70
635,272	-227
635,718	-32
636,164	-160
636,61	-147
637,056	-33
637,502	-38
637,948	-66
638,394	7
638,839	-89
639,285	-74
639,731	-100
640,177	-45
640,623	5
641,068	-23
641,514	95
641,96	31
642,405	0
642,851	-37
643,296	-61
643,742	34
644,187	98
644,633	20
645,078	69
645,524	110
645,969	181
646,415	11
646,86	110
647,305	168
647,751	210
648,196	163
648,641	143
649,086	152
649,532	188
649,977	173
650,422	255
650,867	268
651,312	266
651,757	268
652,202	258
652,647	260
653,092	222
653,537	254
653,982	333
654,427	274
654,872	259
655,316	368
655,761	341
656,206	413
656,651	316
657,096	405
657,54	420
657,985	397
658,43	410
658,874	437
659,319	494
659,763	517
660,208	455
660,652	488
661,097	481
661,541	478
661,986	633
662,43	548
662,874	534
663,319	611
663,763	722
664,207	678
664,651	637
665,096	767
665,54	686
665,984	699
666,428	753
666,872	818
667,316	915
667,76	862
668,204	864
668,648	895
669,092	888
669,536	1018
669,98	1037
670,424	1086
670,868	1121
671,312	1234
671,756	1195
672,199	1242
672,643	1268
673,087	1404
673,531	1474
673,974	1462
674,418	1436
674,862	1543
675,305	1564
675,749	1654
676,192	1689
676,636	1710
677,079	1873
677,523	1868
677,966	1899
678,409	2036
678,853	1990
679,296	2167
679,739	2236
680,183	2242
680,626	2382
681,069	2436
681,512	2518
681,955	2602
682,399	2642
682,842	2684
683,285	2899
683,728	2853
684,171	2835
684,614	2988
685,057	3050
685,5	3111
685,943	3171
686,386	3033
686,828	3232
687,271	3094
687,714	3198
688,157	3189
688,6	3098
689,042	3097
689,485	3140
689,928	3065
690,37	3025
690,813	2857
691,255	2879
691,698	2811
692,141	2695
692,583	2565
693,025	2560
693,468	2460
693,91	2270
694,353	2151
694,795	2080
695,237	2020
695,68	1938
696,122	1806
696,564	1652
697,006	1607
697,449	1507
697,891	1351
698,333	1328
698,775	1235
699,217	1093
699,659	1014
700,101	1037
700,543	856
700,985	880
701,427	764
701,869	751
702,311	673
702,753	613
703,195	557
703,636	461
704,078	465
704,52	456
704,962	408
705,403	360
705,845	379
706,286	275
706,728	255
707,17	297
707,611	231
708,053	142
708,494	209
708,936	204
709,377	172
709,819	146
710,26	207
710,701	126
711,143	140
711,584	90
712,025	87
712,466	88
712,908	87
713,349	61
713,79	22
714,231	58
714,672	50
715,113	42
715,554	21
715,995	59
716,436	13
716,877	51
717,318	34
717,759	43
718,2	29
718,641	29
719,082	17
719,522	29
719,963	-15
720,404	8
720,844	-6
721,285	10
721,726	0
722,166	14
722,607	17
723,048	21
723,488	-18
723,929	-6
724,369	-24
724,81	5
725,25	-19
725,69	-3
726,131	-13
726,571	-14
727,011	24
727,452	-36
727,892	-26
728,332	2
728,772	-12
729,212	-11
729,653	6
730,093	0
730,533	-13
730,973	-8
731,413	-26
731,853	4
732,293	-13
732,733	-9
733,173	-9
733,613	-14
734,052	1
734,492	-17
734,932	-27
735,372	-21
735,812	-12
736,251	-38
736,691	-34
737,131	-47
737,57	-19
738,01	-29
738,449	3
738,889	-9
739,329	-13
739,768	-39
740,208	-21
740,647	-19
741,086	-19
741,526	-33
741,965	-24
742,404	-24
742,844	-10
743,283	-32
743,722	-23
744,161	-20
744,601	-12
745,04	-17
745,479	-15
745,918	13
746,357	-14
746,796	-24
747,235	-28
747,674	-6
748,113	-14
748,552	-30
748,991	0
749,43	-20
749,869	-12
750,307	-5
750,746	-14
751,185	7
751,624	-4
752,062	-22
752,501	-18
752,94	-22
753,378	-17
753,817	3
754,255	-18
754,694	-4
755,132	-6
755,571	4
756,009	0
756,448	-10
756,886	-14
757,325	0
757,763	-19
758,201	-20
758,639	-12
759,078	-18
759,516	-11
759,954	-9
760,392	7
760,83	-3
761,268	-12
761,707	-10
762,145	-23
762,583	-5
763,021	-18
763,459	-5
763,896	-23
764,334	-7
764,772	-22
765,21	-4
765,648	-17
766,086	-22
766,524	2
766,961	-12
767,399	-7
767,837	-4
768,274	-2
768,712	10
769,149	-21
769,587	-2
770,025	-6
770,462	0
770,9	-15
771,337	-4
771,774	0
772,212	-25
772,649	0
773,087	-6
773,524	-19
773,961	8
774,398	-9
774,836	-1
775,273	-1
775,71	-4
776,147	-17
776,584	-10
777,021	-17
777,458	4
777,895	-9
778,332	-11
778,769	-12
779,206	-1
779,643	-14
780,08	-25
780,517	2
780,954	-11
781,391	2
781,827	0
782,264	-7
782,701	-7
783,137	-8
783,574	7
784,011	-3
784,447	2
784,884	-1
785,32	-1
785,757	-8
786,193	6
786,63	8
787,066	-2
787,503	-3
787,939	3
788,375	-9
788,812	4
789,248	2
789,684	-7
790,12	1
790,557	9
790,993	-9
791,429	-2
791,865	-22
792,301	-3
792,737	11
793,173	-2
793,609	-15
794,045	8
794,481	-6
794,917	7
795,353	-6
795,789	-5
796,225	-2
796,66	-7
797,096	4
797,532	-7
797,968	-17
798,403	-9
798,839	-2
799,275	-1
799,71	-18
800,146	5
800,581	-5
801,017	0
801,452	-9
801,888	-12
802,323	11
802,759	-6
803,194	-10
803,629	-3
804,065	6
804,5	-15
804,935	8
805,37	5
805,806	1
806,241	11
806,676	5
807,111	-11
807,546	-6
807,981	-5
808,416	13
808,851	-1
809,286	-15
809,721	-16
810,156	-24
810,591	-3
811,026	5
811,46	6
811,895	-11
812,33	0
812,765	1
813,199	-2
813,634	-4
814,069	0
814,503	-6
814,938	15
815,373	0
815,807	3
816,242	-3
816,676	4
817,111	7
817,545	9
817,979	-8
818,414	1
818,848	-3
819,282	13
819,717	1
820,151	3
820,585	-4
821,019	-2
821,453	-6
821,888	-10
822,322	-11
822,756	27
823,19	-9
823,624	-20
824,058	5
824,492	2
824,926	-9
825,36	-1
825,794	-8
826,227	7
826,661	0
827,095	-7
827,529	-17
827,962	-9
828,396	10
828,83	0
829,263	-9
829,697	-7
830,131	-1
830,564	-7
830,998	-2
831,431	0
831,865	3
832,298	3
832,732	-11
833,165	-2
833,598	-11
834,032	-13
834,465	1
834,898	2
835,331	11
835,765	-4
836,198	11
836,631	-4
837,064	-5
837,497	-4
837,93	-6
838,363	15
838,796	0
839,229	-8
839,662	-7
840,095	5
840,528	-16
840,961	-11
841,394	8
841,827	-10
842,259	-4
842,692	1
843,125	-9
843,558	1
843,99	-7
844,423	0
844,855	-13
845,288	6
845,721	-5
846,153	6
846,586	2
847,018	0
847,45	-2
847,883	11
848,315	-2
848,748	-12
849,18	-14
849,612	3
850,044	-4
850,477	15
850,909	-11
851,341	-2
851,773	-4
852,205	-5
852,637	8
853,069	4
853,501	8
853,933	3
854,365	8
854,797	4
855,229	0
855,661	-13
856,093	9
856,525	-11
856,957	3
857,388	-13
857,82	-4
858,252	-5
858,683	-5
859,115	4
859,547	10
859,978	10
860,41	-6
860,841	6
861,273	17
861,704	-18
862,136	-4
862,567	0
862,999	8
863,43	-3
863,861	-5
864,293	2
864,724	-11
865,155	9
865,586	-4
866,017	-5
866,449	9
866,88	-3
867,311	-10
867,742	5
868,173	3
868,604	-2
869,035	5
869,466	9
869,897	-9
870,328	8
870,759	3
871,189	4
871,62	-2
872,051	-10
872,482	-5
872,912	7
873,343	-6
873,774	-2
874,204	-14
874,635	7
875,066	-10
875,496	11
875,927	-17
876,357	8
876,788	1
877,218	-1
877,648	-7
878,079	-3
878,509	-4
878,939	-10
879,37	1
879,8	-2
880,23	-19
880,66	7
881,091	9
881,521	-11
881,951	7
882,381	5
882,811	1
883,241	11
883,671	-7
884,101	0
884,531	3
884,961	-3
885,391	-10
885,82	8
886,25	11
886,68	-7
887,11	-9
887,539	-6
887,969	-5
888,399	-1
888,828	-12
889,258	5
889,688	-1
890,117	-2
890,547	10
890,976	-5
891,406	8
891,835	-5
892,264	4
892,694	-3
893,123	-2
893,553	9
893,982	2
894,411	-2
894,84	-2
895,269	-4
895,699	-3
896,128	-3
896,557	5
896,986	3
897,415	-4
897,844	18
898,273	16
898,702	4
899,131	9
899,56	2
899,989	-3
900,418	-1
900,846	-6
901,275	-4
901,704	2
902,133	-6
902,561	5
902,99	-11
903,419	-8
903,847	12
904,276	1
904,704	-10
905,133	-1
905,561	12
905,99	-1
906,418	3
906,847	6
907,275	-2
907,704	-2
908,132	-4
908,56	1
908,988	-3
909,417	0
909,845	-4
910,273	5
910,701	1
911,129	-4
911,557	0
911,985	3
912,413	-9
912,841	-1
913,269	0
913,697	7
914,125	5
914,553	8
914,981	8
915,409	3
915,837	8
916,264	-3
916,692	7
917,12	7
917,547	6
917,975	-5
918,403	5
918,83	0
919,258	7
919,685	-4
920,113	8
920,54	-12
920,968	-4
921,395	3
921,823	-7
922,25	-1
922,677	2
923,104	4
923,532	2
923,959	-3
924,386	4
924,813	6
925,24	17
925,668	9
926,095	9
926,522	-3
926,949	6
927,376	-10
927,803	-7
928,23	-7
928,657	1
929,083	4
929,51	-4
929,937	-6
930,364	-3
930,791	-3
931,217	-3
931,644	0
932,071	-17
932,497	-2
932,924	-4
933,351	-6
933,777	4
934,204	14
934,63	-3
935,057	0
935,483	-8
935,909	3
936,336	2
936,762	-2
937,188	-8
937,615	3
938,041	13
938,467	10
938,893	3
939,32	10
939,746	-3
940,172	0
940,598	4
941,024	2
941,45	1
941,876	7
942,302	8
942,728	-5
943,154	-4
943,58	11
944,005	0
944,431	1
944,857	-5
945,283	7
945,709	8
946,134	-8
946,56	0
946,986	6
947,411	7
947,837	2
948,262	-6
948,688	-6
949,113	-1
949,539	-2
949,964	-5
950,39	10
950,815	2
951,24	8
951,666	-5
952,091	5
952,516	2
952,941	2
953,367	-4
953,792	2
954,217	11
954,642	-17
955,067	0
955,492	12
955,917	2
956,342	-3
956,767	3
957,192	-6
957,617	-8
958,042	14
958,466	1
958,891	0
959,316	-11
959,741	3
960,166	-6
960,59	-5
961,015	1
961,439	-15
961,864	7
962,289	1
962,713	-5
963,138	5
963,562	3
963,987	-7
964,411	-4
964,835	9
965,26	-5
965,684	1
966,108	-5
966,533	14
966,957	-4
967,381	8
967,805	14
968,229	-2
968,654	2
969,078	-2
969,502	4
969,926	-3
970,35	2
970,774	-9
971,198	1
971,622	7
972,045	10
972,469	5
972,893	-2
973,317	-5
973,741	-5
974,164	0
974,588	-3
975,012	-6
975,435	-5
975,859	4
976,283	6
976,706	0
977,13	-3
977,553	-4
977,977	4
978,4	3
978,824	8
979,247	-2
979,67	-4
980,094	-4
980,517	-6
980,94	-1
981,363	3
981,786	-8
982,21	2
982,633	8
983,056	1
983,479	5
983,902	3
984,325	6
984,748	9
985,171	1
985,594	-6
986,017	-11
986,44	2
986,863	1
987,285	5
987,708	-12
988,131	4
988,554	-7
988,976	5
989,399	11
989,822	-1
990,244	5
990,667	-2
991,089	-7
991,512	6
991,934	7
992,357	-13
992,779	-5
993,201	-1
993,624	-4
994,046	-7
994,468	3
994,891	-9
995,313	0
995,735	-15
996,157	0
996,579	-3
997,002	4
997,424	6
997,846	-5
998,268	-7
998,69	1
999,112	-2
999,534	-4
999,956	7
1000,377	1
1000,799	4
1001,221	11
1001,643	-9
1002,065	5
1002,486	2
1002,908	-1
1003,33	8
1003,751	-3
1004,173	1
1004,595	0
1005,016	-1
1005,438	5
1005,859	4
1006,281	-11
1006,702	6
1007,123	-21
1007,545	6
1007,966	3
1008,387	-9
1008,809	-1
1009,23	-13
1009,651	0
1010,072	-3
1010,494	-5
1010,915	-6
1011,336	-2
1011,757	11
1012,178	-5
1012,599	7
1013,02	9
1013,441	3
1013,862	-1
1014,283	-2
1014,703	16
1015,124	0
1015,545	-9
1015,966	-7
1016,387	0
1016,807	-10
1017,228	3
1017,649	-9
1018,069	-9
1018,49	-2
1018,91	-4
1019,331	3
1019,751	-1
1020,172	7
1020,592	2
1021,013	0
1021,433	3
1021,853	-3
1022,274	-4
1022,694	-8
1023,114	-10
1023,535	-2
1023,955	-4
1024,375	-12
1024,795	-3
1025,215	-1
1025,635	-1
1026,055	1
1026,475	2
1026,895	-9
1027,315	12
1027,735	-4
1028,155	1
1028,575	4
1028,995	6
1029,414	-8
1029,834	2
1030,254	-7
1030,674	1
1031,093	0
1031,513	2
1031,933	2
1032,352	-3
1032,772	0
1033,191	2
1033,611	-12
1034,03	10
1034,45	0
1034,869	-9
1035,289	-2
1035,708	12
1036,127	-4
1036,546	-8
1036,966	-2
1037,385	16
1037,804	11
1038,223	-5
1038,642	-6
1039,062	3
1039,481	-14
1039,9	4
1040,319	-3
1040,738	-8
1041,157	6
1041,576	8
1041,994	1
1042,413	-12
1042,832	-13
1043,251	-1
1043,67	-11
1044,088	17
1044,507	3
1044,926	-6
1045,345	-3
1045,763	1
1046,182	-2
1046,6	8
1047,019	-1
1047,437	3
1047,856	1
1048,274	1
1048,693	-4
1049,111	-3
1049,529	2
1049,948	2
1050,366	-15
1050,784	0
1051,202	7
1051,621	2
1052,039	16
1052,457	-2
1052,875	-5
1053,293	-7
1053,711	-5
1054,129	6
1054,547	8
1054,965	12
1055,383	4
1055,801	2
1056,219	-7
1056,637	-3
1057,054	5
1057,472	2
1057,89	-6
1058,308	-3
1058,725	-4
1059,143	-1
1059,561	2
1059,978	-5
1060,396	20
1060,813	6
1061,231	4
1061,648	3
1062,066	4
1062,483	-11
1062,9	5
1063,318	1
1063,735	5
1064,152	2
1064,57	2
1064,987	-1
1065,404	-1
1065,821	4
1066,238	-8
1066,655	-3
1067,073	-5
1067,49	6
1067,907	-18
1068,324	-3
1068,741	-1
1069,157	6
1069,574	7
1069,991	2
1070,408	12
1070,825	-14
1071,242	-5
1071,658	1
1072,075	-4
1072,492	2
1072,908	12
1073,325	-3
1073,742	7
1074,158	-4
1074,575	-4
1074,991	5
1075,408	-2
1075,824	-2
1076,24	-12
1076,657	1
1077,073	-4
1077,489	2
1077,906	2
1078,322	7
1078,738	5
1079,154	-7
1079,571	3
1079,987	-2
1080,403	8
1080,819	5
1081,235	-4
1081,651	-7
1082,067	2
1082,483	-3
1082,899	5
1083,315	-2
1083,73	0
1084,146	-7
1084,562	1
1084,978	-2
1085,394	2
1085,809	-3
1086,225	1
1086,641	-10
1087,056	-12
1087,472	16
1087,887	-7
1088,303	11
1088,718	-6
1089,134	5
1089,549	-13
1089,965	-6
1090,38	4
1090,795	-5
1091,21	-5
1091,626	7
1092,041	-2
1092,456	4
1092,871	2
1093,287	4
1093,702	2
1094,117	-5
1094,532	5
1094,947	-7
1095,362	6
1095,777	4
1096,192	-15
1096,607	-3
1097,021	0
1097,436	15
1097,851	-5
1098,266	2
1098,681	-4
1099,095	10
1099,51	8
1099,925	-3
1100,339	9
1100,754	4
1101,168	3
1101,583	4
1101,998	12
1102,412	-5
1102,826	12
1103,241	1
1103,655	-1
1104,07	5
1104,484	1
1104,898	4
1105,312	1
1105,727	-2
1106,141	2
1106,555	-3
1106,969	3
1107,383	-6
1107,797	9
1108,211	-1
1108,625	-3
1109,039	3
1109,453	-3
1109,867	-8
1110,281	4
1110,695	10
1111,109	-3
1111,523	5
1111,936	-9
1112,35	9
1112,764	-10
1113,177	15
1113,591	-2
1114,005	1
1114,418	-5
1114,832	-3
1115,245	1
1115,659	-1
