Data from 33333_Subt2__0__16-04-27-834.txt Node

Date: Fri Oct 27 16:04:27 MSK 2023
User: mishev
Spectrometer: MAYP115646
Trigger mode: 0
Integration Time (sec): 5,000000E-2
Scans to average: 1
Electric dark correction enabled: true
Nonlinearity correction enabled: false
Boxcar width: 0
XAxis mode: Wavelengths
Number of Pixels in Spectrum: 2068
>>>>>Begin Spectral Data<<<<<
199,511	4,03
199,981	-4,77
200,452	3,63
200,923	1,63
201,394	6,23
201,865	1,03
202,335	5,83
202,806	-1,77
203,277	3,63
203,748	5,83
204,218	-4,97
204,689	-6,37
205,159	4,63
205,63	5,03
206,101	1,23
206,571	5,03
207,042	3,43
207,512	7,23
207,983	5,63
208,453	3,23
208,923	0,03
209,394	-1,57
209,864	-5,17
210,335	-2,57
210,805	6,83
211,275	3,83
211,745	-1,57
212,216	4,03
212,686	-1,17
213,156	2,63
213,626	4,03
214,096	2,03
214,566	-3,97
215,037	0,83
215,507	-3,37
215,977	7,43
216,447	8,83
216,917	3,23
217,387	-1,77
217,857	-0,57
218,326	-0,37
218,796	-2,97
219,266	6,23
219,736	-2,77
220,206	18,43
220,676	-2,77
221,145	-4,57
221,615	5,83
222,085	1,63
222,555	6,23
223,024	9,43
223,494	-5,77
223,964	2,23
224,433	-6,37
224,903	-4,17
225,372	-7,37
225,842	-0,37
226,311	-1,37
226,781	-1,17
227,25	3,83
227,72	-6,57
228,189	-3,17
228,658	-1,77
229,128	4,43
229,597	0,63
230,066	-5,57
230,536	-2,17
231,005	9,43
231,474	7,03
231,943	-6,37
232,412	1,63
232,881	6,03
233,351	3,43
233,82	-0,37
234,289	2,03
234,758	-3,77
235,227	5,63
235,696	-3,37
236,165	-10,57
236,634	-3,57
237,103	-6,77
237,572	10,23
238,04	8,43
238,509	5,63
238,978	4,43
239,447	5,03
239,916	1,03
240,384	4,83
240,853	-2,37
241,322	-1,57
241,79	8,43
242,259	-1,37
242,728	1,63
243,196	10,43
243,665	-0,57
244,133	2,43
244,602	1,43
245,07	0,63
245,539	-0,77
246,007	15,23
246,476	-3,77
246,944	10,23
247,413	3,23
247,881	-0,97
248,349	5,83
248,817	2,83
249,286	-1,37
249,754	4,63
250,222	-2,17
250,69	6,03
251,159	8,43
251,627	2,63
252,095	1,63
252,563	3,03
253,031	-2,97
253,499	3,03
253,967	-2,37
254,435	7,03
254,903	-4,37
255,371	9,63
255,839	-4,97
256,307	-7,37
256,775	2,23
257,242	13,43
257,71	-0,37
258,178	0,43
258,646	-4,57
259,114	2,03
259,581	6,43
260,049	7,83
260,517	2,03
260,984	3,23
261,452	2,63
261,919	-3,37
262,387	6,03
262,855	0,43
263,322	-5,37
263,79	-2,97
264,257	5,83
264,724	4,63
265,192	-0,77
265,659	7,43
266,127	9,43
266,594	-7,77
267,061	8,03
267,529	-6,77
267,996	3,43
268,463	7,23
268,93	1,83
269,397	9,03
269,865	-3,37
270,332	5,43
270,799	5,63
271,266	-2,17
271,733	-0,17
272,2	-2,57
272,667	4,83
273,134	3,23
273,601	14,03
274,068	-6,97
274,535	5,03
275,002	12,23
275,469	13,03
275,935	6,83
276,402	-8,97
276,869	-0,17
277,336	3,83
277,802	1,03
278,269	1,23
278,736	3,43
279,203	2,63
279,669	7,83
280,136	-0,97
280,602	-0,77
281,069	9,43
281,535	2,03
282,002	-7,17
282,468	6,83
282,935	3,83
283,401	2,43
283,868	-3,37
284,334	-0,17
284,8	5,23
285,267	-0,97
285,733	-1,57
286,199	8,23
286,666	8,03
287,132	0,43
287,598	6,83
288,064	-0,37
288,53	6,43
288,996	4,03
289,463	-2,77
289,929	4,83
290,395	1,83
290,861	2,63
291,327	-0,17
291,793	7,63
292,259	4,83
292,725	1,03
293,19	1,23
293,656	0,63
294,122	5,23
294,588	4,03
295,054	7,03
295,52	8,83
295,985	1,63
296,451	2,23
296,917	4,63
297,382	-3,97
297,848	1,83
298,314	-3,17
298,779	7,23
299,245	-1,17
299,71	4,03
300,176	-4,57
300,641	5,03
301,107	5,03
301,572	9,23
302,038	6,83
302,503	1,43
302,968	5,43
303,434	9,43
303,899	-3,37
304,364	4,63
304,83	6,83
305,295	-0,17
305,76	12,63
306,225	0,63
306,69	13,43
307,156	-4,17
307,621	6,83
308,086	-0,37
308,551	7,03
309,016	7,23
309,481	3,63
309,946	-2,77
310,411	8,63
310,876	-3,77
311,341	11,63
311,806	1,23
312,27	-3,57
312,735	6,63
313,2	3,23
313,665	13,63
314,13	2,43
314,594	1,83
315,059	13,63
315,524	12,03
315,988	3,63
316,453	-8,37
316,918	6,03
317,382	9,03
317,847	6,23
318,311	-4,17
318,776	4,83
319,24	-2,57
319,705	2,83
320,169	-6,77
320,634	1,43
321,098	7,03
321,562	10,43
322,027	16,63
322,491	2,63
322,955	1,63
323,419	11,23
323,884	2,83
324,348	7,63
324,812	-11,57
325,276	-0,17
325,74	8,63
326,204	-6,37
326,668	4,23
327,132	5,03
327,596	0,43
328,06	8,83
328,524	-0,37
328,988	-4,17
329,452	-1,57
329,916	10,83
330,38	3,23
330,844	12,43
331,308	5,83
331,771	8,23
332,235	3,03
332,699	5,23
333,163	5,63
333,626	8,03
334,09	5,03
334,554	3,83
335,017	6,83
335,481	4,43
335,944	-8,77
336,408	-0,77
336,871	2,03
337,335	13,43
337,798	2,63
338,262	0,23
338,725	11,23
339,188	9,43
339,652	5,43
340,115	5,43
340,578	-6,57
341,042	0,63
341,505	-6,97
341,968	3,83
342,431	13,43
342,895	-0,97
343,358	0,83
343,821	4,43
344,284	4,83
344,747	-0,17
345,21	5,83
345,673	3,23
346,136	-3,77
346,599	-2,17
347,062	1,63
347,525	-3,77
347,988	6,43
348,451	4,03
348,913	3,43
349,376	-3,37
349,839	1,23
350,302	7,23
350,765	12,03
351,227	6,03
351,69	6,23
352,153	6,43
352,615	7,23
353,078	6,23
353,54	3,63
354,003	-7,37
354,465	-3,97
354,928	11,83
355,39	3,43
355,853	-3,37
356,315	17,43
356,778	5,03
357,24	5,83
357,702	8,63
358,165	1,03
358,627	2,23
359,089	15,63
359,552	-0,17
360,014	-4,37
360,476	-1,77
360,938	6,63
361,4	13,03
361,862	-2,37
362,325	9,23
362,787	-5,77
363,249	-1,77
363,711	4,43
364,173	6,23
364,635	6,63
365,097	3,43
365,558	0,03
366,02	2,03
366,482	-2,77
366,944	-5,77
367,406	1,63
367,868	-4,37
368,329	4,43
368,791	8,43
369,253	5,83
369,714	6,23
370,176	0,63
370,638	6,03
371,099	-0,17
371,561	-3,77
372,022	5,83
372,484	2,43
372,945	-1,97
373,407	8,43
373,868	-0,97
374,33	3,23
374,791	8,03
375,253	8,23
375,714	7,23
376,175	1,23
376,637	2,43
377,098	-0,57
377,559	6,23
378,02	14,23
378,481	2,03
378,943	-3,77
379,404	4,23
379,865	21,43
380,326	14,63
380,787	12,03
381,248	0,83
381,709	11,83
382,17	2,03
382,631	4,23
383,092	-14,37
383,553	1,23
384,014	-5,77
384,474	6,43
384,935	-1,77
385,396	7,63
385,857	1,43
386,318	-6,37
386,778	11,83
387,239	6,63
387,7	6,83
388,16	-0,37
388,621	-4,37
389,082	-1,57
389,542	-4,17
390,003	-7,17
390,463	5,03
390,924	9,63
391,384	4,83
391,845	0,23
392,305	0,43
392,765	2,83
393,226	2,43
393,686	4,23
394,146	-2,57
394,607	2,63
395,067	7,03
395,527	6,43
395,987	-7,97
396,447	-2,57
396,908	6,43
397,368	-1,97
397,828	6,23
398,288	5,03
398,748	-5,17
399,208	14,83
399,668	-5,57
400,128	0,63
400,588	-1,77
401,048	6,23
401,508	6,83
401,968	-3,37
402,427	-8,57
402,887	3,23
403,347	7,43
403,807	12,03
404,266	-5,37
404,726	-1,37
405,186	2,63
405,645	5,43
406,105	-5,17
406,565	16,03
407,024	9,83
407,484	6,03
407,943	14,63
408,403	-3,37
408,862	-0,57
409,322	9,63
409,781	6,83
410,241	-4,77
410,7	6,03
411,159	1,23
411,619	6,03
412,078	4,63
412,537	0,43
412,996	-3,17
413,456	6,43
413,915	3,83
414,374	3,43
414,833	-1,97
415,292	9,83
415,751	9,63
416,21	-2,17
416,669	15,43
417,128	10,03
417,587	9,03
418,046	10,83
418,505	7,63
418,964	9,63
419,423	19,23
419,882	14,83
420,341	17,63
420,799	12,03
421,258	2,43
421,717	6,83
422,176	10,83
422,634	21,03
423,093	9,83
423,552	14,03
424,01	20,03
424,469	29,43
424,927	42,23
425,386	34,83
425,844	27,83
426,303	45,63
426,761	45,03
427,22	52,63
427,678	56,63
428,137	65,63
428,595	60,23
429,053	58,43
429,512	83,83
429,97	95,83
430,428	85,03
430,886	110,83
431,344	107,23
431,803	101,43
432,261	137,63
432,719	119,03
433,177	143,63
433,635	143,63
434,093	158,43
434,551	195,83
435,009	184,03
435,467	192,03
435,925	220,43
436,383	202,03
436,841	236,23
437,299	243,63
437,756	272,63
438,214	276,83
438,672	285,03
439,13	300,03
439,587	327,23
440,045	355,83
440,503	332,83
440,96	367,83
441,418	431,03
441,876	437,83
442,333	463,83
442,791	488,03
443,248	520,83
443,706	535,43
444,163	582,63
444,621	597,63
445,078	633,43
445,535	635,23
445,993	658,03
446,45	721,43
446,907	760,43
447,365	753,63
447,822	844,03
448,279	825,43
448,736	837,83
449,193	851,83
449,651	913,43
450,108	910,23
450,565	920,23
451,022	910,03
451,479	880,03
451,936	928,43
452,393	942,23
452,85	901,83
453,307	860,63
453,764	885,43
454,221	874,83
454,677	862,03
455,134	869,83
455,591	807,43
456,048	796,23
456,505	772,83
456,961	735,83
457,418	734,23
457,875	712,03
458,331	701,23
458,788	653,83
459,244	640,83
459,701	618,63
460,158	598,63
460,614	618,03
461,071	579,83
461,527	542,43
461,983	571,23
462,44	544,63
462,896	562,03
463,353	540,43
463,809	511,83
464,265	506,63
464,721	473,43
465,178	469,23
465,634	466,83
466,09	467,23
466,546	440,83
467,002	446,43
467,458	421,43
467,915	423,63
468,371	414,83
468,827	401,03
469,283	382,63
469,739	375,43
470,195	366,23
470,651	361,83
471,106	341,23
471,562	379,83
472,018	334,63
472,474	326,03
472,93	325,63
473,386	307,03
473,841	298,23
474,297	286,83
474,753	283,23
475,208	274,03
475,664	270,83
476,12	266,43
476,575	270,63
477,031	251,23
477,486	266,03
477,942	249,83
478,397	232,83
478,853	242,43
479,308	214,83
479,763	232,03
480,219	229,23
480,674	223,63
481,13	217,43
481,585	225,63
482,04	208,03
482,495	231,43
482,951	250,03
483,406	226,83
483,861	232,03
484,316	223,23
484,771	216,03
485,226	206,63
485,681	230,03
486,136	211,03
486,591	236,83
487,046	213,43
487,501	246,03
487,956	228,83
488,411	245,03
488,866	223,43
489,321	234,83
489,775	248,43
490,23	256,03
490,685	265,43
491,14	267,23
491,594	280,43
492,049	272,83
492,504	269,63
492,958	306,63
493,413	313,03
493,868	332,03
494,322	347,43
494,777	328,03
495,231	356,23
495,686	348,43
496,14	395,43
496,594	391,23
497,049	413,23
497,503	435,43
497,958	443,63
498,412	476,03
498,866	487,23
499,32	525,23
499,775	540,23
500,229	537,83
500,683	583,03
501,137	568,83
501,591	606,23
502,045	626,43
502,499	658,23
502,953	666,23
503,407	691,23
503,861	728,83
504,315	736,63
504,769	804,83
505,223	787,83
505,677	810,83
506,131	803,63
506,585	842,63
507,039	876,43
507,492	877,23
507,946	894,23
508,4	891,03
508,854	952,03
509,307	961,43
509,761	1010,63
510,214	1021,03
510,668	1044,03
511,122	1058,23
511,575	1103,83
512,029	1082,23
512,482	1116,63
512,936	1134,03
513,389	1137,43
513,842	1195,83
514,296	1226,23
514,749	1248,03
515,202	1253,63
515,656	1317,03
516,109	1318,83
516,562	1293,03
517,015	1340,83
517,469	1383,03
517,922	1413,03
518,375	1398,43
518,828	1404,83
519,281	1469,43
519,734	1470,63
520,187	1463,83
520,64	1528,83
521,093	1521,43
521,546	1521,63
521,999	1575,03
522,452	1644,23
522,905	1651,03
523,358	1638,43
523,81	1662,03
524,263	1657,63
524,716	1698,83
525,169	1774,43
525,621	1728,03
526,074	1735,23
526,527	1788,03
526,979	1740,03
527,432	1863,03
527,884	1842,83
528,337	1871,43
528,789	1895,63
529,242	1928,03
529,694	1918,03
530,147	1951,03
530,599	1966,83
531,052	1968,43
531,504	1984,43
531,956	2013,83
532,409	2017,43
532,861	2061,23
533,313	2045,83
533,765	2115,03
534,218	2152,43
534,67	2131,63
535,122	2119,83
535,574	2144,43
536,026	2168,83
536,478	2129,43
536,93	2206,03
537,382	2244,23
537,834	2257,63
538,286	2231,23
538,738	2326,03
539,19	2313,63
539,642	2306,83
540,094	2306,03
540,545	2373,23
540,997	2330,03
541,449	2341,23
541,901	2418,43
542,352	2425,43
542,804	2413,23
543,256	2466,23
543,707	2403,83
544,159	2405,83
544,611	2478,83
545,062	2461,63
545,514	2421,83
545,965	2483,83
546,417	2472,23
546,868	2516,83
547,319	2533,83
547,771	2532,23
548,222	2555,03
548,674	2531,43
549,125	2570,63
549,576	2573,23
550,027	2556,63
550,479	2608,83
550,93	2625,23
551,381	2587,83
551,832	2602,03
552,283	2553,23
552,734	2577,23
553,185	2566,83
553,636	2625,23
554,087	2655,43
554,538	2624,43
554,989	2586,63
555,44	2637,23
555,891	2602,83
556,342	2615,43
556,793	2641,63
557,244	2617,83
557,694	2601,83
558,145	2671,23
558,596	2619,23
559,047	2622,83
559,497	2621,43
559,948	2653,23
560,399	2664,03
560,849	2664,43
561,3	2613,83
561,75	2617,43
562,201	2620,83
562,651	2596,63
563,102	2662,23
563,552	2593,43
564,003	2571,43
564,453	2614,23
564,903	2606,43
565,354	2595,83
565,804	2600,83
566,254	2576,83
566,705	2623,63
567,155	2585,03
567,605	2620,63
568,055	2560,03
568,505	2541,63
568,955	2594,43
569,405	2561,83
569,856	2516,83
570,306	2560,03
570,756	2519,23
571,206	2520,83
571,656	2521,63
572,105	2489,03
572,555	2526,23
573,005	2530,43
573,455	2530,83
573,905	2474,83
574,355	2467,03
574,804	2428,43
575,254	2442,03
575,704	2421,63
576,154	2399,03
576,603	2422,83
577,053	2434,03
577,502	2346,03
577,952	2413,23
578,402	2347,83
578,851	2408,23
579,301	2361,43
579,75	2362,83
580,199	2370,23
580,649	2305,23
581,098	2336,83
581,548	2354,63
581,997	2279,03
582,446	2305,03
582,895	2320,03
583,345	2307,83
583,794	2300,03
584,243	2282,23
584,692	2269,03
585,141	2238,63
585,591	2267,23
586,04	2228,43
586,489	2303,83
586,938	2277,43
587,387	2255,43
587,836	2220,43
588,285	2245,83
588,734	2268,63
589,182	2219,43
589,631	2204,83
590,08	2175,43
590,529	2160,23
590,978	2166,63
591,426	2161,63
591,875	2178,83
592,324	2206,43
592,773	2201,43
593,221	2160,23
593,67	2150,03
594,118	2222,63
594,567	2150,23
595,016	2156,63
595,464	2165,83
595,913	2145,43
596,361	2146,43
596,809	2165,83
597,258	2166,43
597,706	2095,23
598,155	2115,23
598,603	2109,43
599,051	2056,83
599,499	2128,23
599,948	2135,23
600,396	2099,03
600,844	2068,83
601,292	2128,63
601,74	2104,83
602,188	2131,23
602,636	2088,63
603,085	2082,23
603,533	2066,43
603,981	2069,43
604,429	2066,03
604,876	2072,43
605,324	2101,23
605,772	2058,83
606,22	2107,63
606,668	2121,23
607,116	2088,23
607,563	2038,83
608,011	2037,43
608,459	2039,03
608,907	2062,23
609,354	2028,83
609,802	1998,83
610,25	2087,23
610,697	2046,03
611,145	2097,63
611,592	2047,23
612,04	1975,83
612,487	1979,83
612,935	2000,43
613,382	2006,83
613,829	2027,03
614,277	1920,03
614,724	1986,43
615,171	1968,63
615,619	1984,63
616,066	1969,63
616,513	1954,83
616,96	1976,43
617,408	1939,83
617,855	1952,63
618,302	1938,23
618,749	1934,23
619,196	1892,63
619,643	1888,83
620,09	1889,03
620,537	1894,43
620,984	1863,23
621,431	1891,63
621,878	1851,23
622,325	1868,43
622,771	1813,43
623,218	1842,63
623,665	1837,03
624,112	1779,03
624,559	1800,63
625,005	1808,63
625,452	1758,43
625,899	1761,03
626,345	1808,83
626,792	1745,03
627,238	1765,03
627,685	1745,63
628,131	1773,83
628,578	1695,83
629,024	1744,03
629,471	1702,43
629,917	1723,43
630,364	1673,23
630,81	1655,03
631,256	1680,43
631,703	1646,83
632,149	1669,23
632,595	1594,23
633,041	1584,23
633,487	1627,63
633,934	1583,83
634,38	1555,63
634,826	1538,63
635,272	1591,83
635,718	1490,63
636,164	1545,23
636,61	1496,43
637,056	1524,43
637,502	1536,63
637,948	1453,03
638,394	1494,23
638,839	1497,43
639,285	1500,63
639,731	1483,43
640,177	1444,43
640,623	1454,23
641,068	1467,23
641,514	1405,63
641,96	1376,83
642,405	1400,83
642,851	1376,43
643,296	1380,83
643,742	1352,23
644,187	1377,43
644,633	1394,63
645,078	1383,63
645,524	1370,63
645,969	1303,03
646,415	1318,83
646,86	1343,63
647,305	1309,43
647,751	1291,03
648,196	1306,23
648,641	1300,03
649,086	1280,63
649,532	1264,83
649,977	1232,03
650,422	1221,83
650,867	1206,43
651,312	1210,83
651,757	1199,03
652,202	1228,23
652,647	1188,83
653,092	1189,03
653,537	1196,23
653,982	1195,23
654,427	1193,23
654,872	1168,63
655,316	1207,43
655,761	1150,23
656,206	1199,63
656,651	1146,63
657,096	1176,83
657,54	1115,23
657,985	1129,63
658,43	1109,63
658,874	1105,43
659,319	1110,63
659,763	1127,63
660,208	1123,83
660,652	1109,43
661,097	1090,03
661,541	1039,43
661,986	1068,23
662,43	1085,83
662,874	1093,83
663,319	1070,83
663,763	1082,83
664,207	1081,63
664,651	1068,83
665,096	1065,43
665,54	1017,83
665,984	1012,83
666,428	1045,23
666,872	1027,63
667,316	1010,43
667,76	1035,43
668,204	1060,23
668,648	976,83
669,092	1043,03
669,536	984,43
669,98	1018,43
670,424	983,83
670,868	972,63
671,312	984,83
671,756	1023,03
672,199	1002,03
672,643	1002,23
673,087	991,03
673,531	970,23
673,974	995,63
674,418	1002,63
674,862	1006,63
675,305	982,63
675,749	996,03
676,192	1014,03
676,636	973,23
677,079	962,43
677,523	980,63
677,966	993,63
678,409	966,83
678,853	977,83
679,296	996,43
679,739	965,43
680,183	940,63
680,626	961,03
681,069	962,03
681,512	967,43
681,955	962,63
682,399	945,83
682,842	963,63
683,285	947,63
683,728	957,83
684,171	942,23
684,614	924,63
685,057	936,03
685,5	948,23
685,943	942,63
686,386	928,23
686,828	966,43
687,271	934,03
687,714	903,03
688,157	943,83
688,6	920,43
689,042	930,03
689,485	928,63
689,928	931,43
690,37	912,63
690,813	926,23
691,255	888,03
691,698	913,23
692,141	889,63
692,583	875,63
693,025	907,43
693,468	892,83
693,91	900,43
694,353	882,63
694,795	879,43
695,237	838,23
695,68	873,23
696,122	869,63
696,564	861,03
697,006	860,03
697,449	828,23
697,891	847,63
698,333	869,43
698,775	841,03
699,217	830,63
699,659	855,43
700,101	817,83
700,543	827,23
700,985	839,83
701,427	803,43
701,869	808,23
702,311	822,03
702,753	806,23
703,195	777,63
703,636	802,03
704,078	815,03
704,52	764,83
704,962	771,43
705,403	779,03
705,845	736,63
706,286	772,63
706,728	770,83
707,17	726,23
707,611	747,03
708,053	711,63
708,494	721,03
708,936	697,43
709,377	695,63
709,819	696,63
710,26	708,43
710,701	672,83
711,143	692,03
711,584	658,43
712,025	657,23
712,466	675,43
712,908	643,43
713,349	643,63
713,79	640,83
714,231	678,03
714,672	625,03
715,113	613,83
715,554	623,63
715,995	634,03
716,436	605,83
716,877	595,23
717,318	597,03
717,759	606,43
718,2	578,63
718,641	572,23
719,082	575,23
719,522	547,63
719,963	580,63
720,404	560,43
720,844	549,23
721,285	529,63
721,726	548,43
722,166	510,83
722,607	531,43
723,048	521,83
723,488	515,43
723,929	491,63
724,369	501,03
724,81	502,83
725,25	500,03
725,69	494,83
726,131	462,63
726,571	477,23
727,011	467,63
727,452	446,43
727,892	446,63
728,332	438,63
728,772	437,43
729,212	432,83
729,653	423,43
730,093	432,43
730,533	439,23
730,973	426,23
731,413	410,63
731,853	428,63
732,293	407,23
732,733	407,23
733,173	411,23
733,613	401,23
734,052	388,03
734,492	389,03
734,932	371,83
735,372	379,23
735,812	361,23
736,251	367,23
736,691	351,23
737,131	377,23
737,57	370,03
738,01	336,63
738,449	338,83
738,889	366,43
739,329	322,23
739,768	350,63
740,208	340,03
740,647	311,23
741,086	318,43
741,526	321,63
741,965	317,83
742,404	321,23
742,844	293,63
743,283	310,63
743,722	301,43
744,161	300,03
744,601	293,03
745,04	307,63
745,479	274,63
745,918	288,63
746,357	286,03
746,796	277,83
747,235	274,63
747,674	289,43
748,113	265,83
748,552	260,23
748,991	233,83
749,43	264,43
749,869	247,83
750,307	256,43
750,746	231,23
751,185	243,63
751,624	239,83
752,062	244,43
752,501	228,03
752,94	237,83
753,378	224,83
753,817	222,63
754,255	216,83
754,694	210,83
755,132	215,43
755,571	222,03
756,009	204,63
756,448	207,03
756,886	207,63
757,325	187,03
757,763	185,63
758,201	184,63
758,639	189,23
759,078	196,23
759,516	182,43
759,954	175,03
760,392	201,23
760,83	200,03
761,268	176,03
761,707	189,63
762,145	161,43
762,583	170,43
763,021	179,43
763,459	177,43
763,896	170,83
764,334	159,03
764,772	163,43
765,21	163,23
765,648	162,83
766,086	165,63
766,524	151,03
766,961	140,43
767,399	134,63
767,837	136,03
768,274	131,03
768,712	150,63
769,149	132,63
769,587	144,03
770,025	147,23
770,462	141,63
770,9	141,23
771,337	157,23
771,774	125,83
772,212	132,03
772,649	121,63
773,087	115,63
773,524	113,83
773,961	130,23
774,398	108,83
774,836	101,63
775,273	104,83
775,71	103,63
776,147	117,03
776,584	107,23
777,021	103,43
777,458	103,03
777,895	113,43
778,332	113,83
778,769	120,63
779,206	109,63
779,643	89,83
780,08	106,23
780,517	103,83
780,954	93,23
781,391	88,03
781,827	98,43
782,264	64,23
782,701	89,63
783,137	86,03
783,574	75,23
784,011	79,63
784,447	90,03
784,884	83,63
785,32	86,03
785,757	87,23
786,193	77,23
786,63	83,43
787,066	84,63
787,503	89,23
787,939	75,03
788,375	71,63
788,812	67,23
789,248	67,03
789,684	67,43
790,12	74,23
790,557	83,63
790,993	67,43
791,429	62,43
791,865	68,23
792,301	68,43
792,737	57,03
793,173	74,23
793,609	60,23
794,045	68,63
794,481	52,03
794,917	65,83
795,353	47,03
795,789	61,23
796,225	45,83
796,66	61,63
797,096	65,63
797,532	44,43
797,968	54,63
798,403	43,83
798,839	54,43
799,275	50,43
799,71	42,03
800,146	54,63
800,581	46,83
801,017	54,63
801,452	40,63
801,888	52,43
802,323	44,43
802,759	45,23
803,194	46,63
803,629	46,63
804,065	49,63
804,5	49,83
804,935	46,83
805,37	49,83
805,806	48,63
806,241	41,63
806,676	50,23
807,111	42,63
807,546	42,63
807,981	38,43
808,416	38,63
808,851	38,63
809,286	29,83
809,721	33,43
810,156	32,03
810,591	54,63
811,026	49,43
811,46	32,83
811,895	35,63
812,33	42,23
812,765	35,03
813,199	41,23
813,634	37,03
814,069	26,83
814,503	40,03
814,938	22,23
815,373	38,83
815,807	16,63
816,242	27,43
816,676	44,03
817,111	34,83
817,545	39,83
817,979	39,83
818,414	33,63
818,848	32,83
819,282	32,03
819,717	32,43
820,151	40,83
820,585	30,63
821,019	14,43
821,453	20,43
821,888	22,23
822,322	26,43
822,756	27,63
823,19	15,83
823,624	21,63
824,058	16,83
824,492	25,83
824,926	19,63
825,36	28,23
825,794	11,83
826,227	23,43
826,661	18,63
827,095	20,63
827,529	21,23
827,962	34,83
828,396	10,23
828,83	25,23
829,263	31,23
829,697	25,23
830,131	23,03
830,564	20,83
830,998	11,03
831,431	24,63
831,865	23,43
832,298	23,03
832,732	15,23
833,165	18,43
833,598	11,03
834,032	18,43
834,465	29,83
834,898	27,23
835,331	11,03
835,765	23,43
836,198	16,03
836,631	21,23
837,064	12,83
837,497	11,23
837,93	14,63
838,363	26,63
838,796	10,63
839,229	17,03
839,662	6,23
840,095	19,63
840,528	12,43
840,961	15,63
841,394	13,23
841,827	16,03
842,259	16,23
842,692	15,63
843,125	12,83
843,558	8,63
843,99	20,63
844,423	21,03
844,855	12,03
845,288	13,83
845,721	19,43
846,153	13,43
846,586	8,63
847,018	4,83
847,45	18,83
847,883	6,63
848,315	-4,77
848,748	7,63
849,18	9,03
849,612	24,83
850,044	22,03
850,477	11,63
850,909	4,23
851,341	3,63
851,773	8,83
852,205	13,03
852,637	7,63
853,069	7,23
853,501	21,43
853,933	4,23
854,365	15,43
854,797	11,83
855,229	12,83
855,661	15,03
856,093	7,43
856,525	7,83
856,957	6,23
857,388	7,63
857,82	7,63
858,252	7,63
858,683	4,23
859,115	11,43
859,547	17,03
859,978	9,43
860,41	16,23
860,841	20,03
861,273	5,63
861,704	15,63
862,136	9,83
862,567	18,03
862,999	2,23
863,43	16,03
863,861	11,63
864,293	18,43
864,724	15,03
865,155	7,63
865,586	10,43
866,017	0,23
866,449	11,63
866,88	14,03
867,311	10,03
867,742	8,83
868,173	3,03
868,604	0,83
869,035	6,63
869,466	4,83
869,897	18,43
870,328	3,23
870,759	4,63
871,189	2,83
871,62	9,83
872,051	10,43
872,482	-2,97
872,912	12,03
873,343	5,03
873,774	3,63
874,204	13,83
874,635	20,43
875,066	-0,37
875,496	3,83
875,927	5,43
876,357	13,83
876,788	4,03
877,218	-3,97
877,648	4,43
878,079	-2,17
878,509	1,63
878,939	-0,77
879,37	-1,17
879,8	8,23
880,23	5,03
880,66	10,03
881,091	3,43
881,521	10,83
881,951	6,03
882,381	-2,17
882,811	-4,57
883,241	9,83
883,671	4,43
884,101	-2,17
884,531	13,23
884,961	5,43
885,391	2,03
885,82	6,63
886,25	16,63
886,68	4,03
887,11	4,23
887,539	11,03
887,969	7,23
888,399	-0,37
888,828	-0,77
889,258	-0,37
889,688	2,03
890,117	-0,57
890,547	7,43
890,976	6,23
891,406	13,63
891,835	6,83
892,264	0,23
892,694	6,03
893,123	7,43
893,553	2,23
893,982	1,63
894,411	-2,37
894,84	11,03
895,269	3,83
895,699	-3,97
896,128	6,83
896,557	16,63
896,986	-0,77
897,415	11,23
897,844	2,63
898,273	2,23
898,702	-2,57
899,131	-8,77
899,56	0,43
899,989	-0,97
900,418	7,23
900,846	-0,37
901,275	5,43
901,704	3,63
902,133	-7,57
902,561	12,83
902,99	-0,17
903,419	0,43
903,847	12,63
904,276	-1,97
904,704	-0,57
905,133	-10,57
905,561	3,83
905,99	4,23
906,418	-0,97
906,847	-0,37
907,275	7,43
907,704	3,03
908,132	19,63
908,56	3,43
908,988	10,63
909,417	1,23
909,845	14,43
910,273	-1,37
910,701	2,63
911,129	7,63
911,557	6,23
911,985	6,03
912,413	-1,37
912,841	-1,77
913,269	-12,37
913,697	-0,97
914,125	9,43
914,553	-0,37
914,981	7,43
915,409	-3,37
915,837	9,43
916,264	5,63
916,692	-11,57
917,12	2,83
917,547	-2,77
917,975	-0,37
918,403	2,03
918,83	1,23
919,258	13,23
919,685	3,23
920,113	2,63
920,54	18,23
920,968	5,43
921,395	2,03
921,823	9,43
922,25	5,03
922,677	12,03
923,104	2,03
923,532	-9,17
923,959	13,23
924,386	0,03
924,813	-2,37
925,24	-4,97
925,668	0,03
926,095	7,43
926,522	-0,77
926,949	1,23
927,376	10,23
927,803	7,63
928,23	8,63
928,657	-5,57
929,083	10,63
929,51	5,23
929,937	9,23
930,364	-1,37
930,791	9,23
931,217	11,23
931,644	2,83
932,071	0,23
932,497	6,03
932,924	5,23
933,351	8,83
933,777	-6,77
934,204	-5,57
934,63	2,43
935,057	4,03
935,483	0,03
935,909	3,23
936,336	1,63
936,762	10,43
937,188	7,23
937,615	12,03
938,041	12,83
938,467	3,83
938,893	-2,17
939,32	0,83
939,746	11,43
940,172	15,23
940,598	-3,57
941,024	14,63
941,45	1,83
941,876	4,03
942,302	11,23
942,728	1,83
943,154	12,43
943,58	8,23
944,005	4,23
944,431	-2,97
944,857	2,03
945,283	2,03
945,709	0,63
946,134	3,83
946,56	8,63
946,986	17,03
947,411	6,83
947,837	14,63
948,262	3,03
948,688	9,43
949,113	3,43
949,539	1,23
949,964	10,23
950,39	1,23
950,815	3,03
951,24	0,43
951,666	-4,37
952,091	0,43
952,516	-5,37
952,941	-6,37
953,367	-1,57
953,792	0,23
954,217	0,03
954,642	3,63
955,067	9,63
955,492	2,43
955,917	2,03
956,342	10,83
956,767	0,83
957,192	-7,77
957,617	2,23
958,042	-12,17
958,466	-3,57
958,891	11,03
959,316	1,63
959,741	-2,17
960,166	4,03
960,59	14,63
961,015	4,03
961,439	3,43
961,864	-2,77
962,289	3,83
962,713	-2,17
963,138	4,63
963,562	-0,57
963,987	5,43
964,411	2,83
964,835	-6,37
965,26	11,43
965,684	5,03
966,108	-3,17
966,533	3,83
966,957	6,83
967,381	-0,77
967,805	4,03
968,229	-0,17
968,654	8,03
969,078	-1,37
969,502	-1,37
969,926	4,43
970,35	-6,57
970,774	-5,97
971,198	-6,17
971,622	13,63
972,045	1,23
972,469	11,43
972,893	11,03
973,317	12,03
973,741	4,63
974,164	14,03
974,588	3,03
975,012	-1,57
975,435	-0,17
975,859	18,23
976,283	4,43
976,706	4,03
977,13	-1,77
977,553	4,63
977,977	-3,77
978,4	4,23
978,824	8,83
979,247	4,03
979,67	-2,37
980,094	-3,17
980,517	-0,57
980,94	12,83
981,363	-0,37
981,786	7,83
982,21	-1,57
982,633	1,23
983,056	-3,77
983,479	-4,77
983,902	0,43
984,325	3,63
984,748	5,63
985,171	4,63
985,594	12,43
986,017	5,43
986,44	-7,57
986,863	10,83
987,285	-3,17
987,708	-0,17
988,131	7,63
988,554	9,23
988,976	19,43
989,399	1,83
989,822	1,63
990,244	7,83
990,667	-1,17
991,089	-10,37
991,512	4,63
991,934	8,03
992,357	0,43
992,779	3,23
993,201	-6,77
993,624	7,63
994,046	12,03
994,468	8,03
994,891	2,03
995,313	5,83
995,735	9,63
996,157	10,63
996,579	11,63
997,002	1,63
997,424	-0,57
997,846	-0,57
998,268	1,83
998,69	1,63
999,112	-3,37
999,534	4,03
999,956	-6,77
1000,377	-4,77
1000,799	9,83
1001,221	-2,97
1001,643	-5,77
1002,065	4,23
1002,486	1,83
1002,908	0,63
1003,33	4,83
1003,751	9,63
1004,173	10,43
1004,595	10,43
1005,016	1,03
1005,438	-5,97
1005,859	1,23
1006,281	-6,57
1006,702	-8,37
1007,123	7,63
1007,545	-0,77
1007,966	14,83
1008,387	-0,37
1008,809	10,23
1009,23	-6,57
1009,651	2,23
1010,072	0,83
1010,494	-1,97
1010,915	8,03
1011,336	7,23
1011,757	-8,77
1012,178	4,83
1012,599	12,23
1013,02	6,43
1013,441	-3,77
1013,862	2,83
1014,283	3,03
1014,703	0,83
1015,124	8,03
1015,545	1,03
1015,966	2,83
1016,387	7,23
1016,807	2,63
1017,228	3,03
1017,649	-4,77
1018,069	1,43
1018,49	10,23
1018,91	-3,37
1019,331	-5,77
1019,751	3,43
1020,172	4,23
1020,592	5,83
1021,013	-6,37
1021,433	-9,77
1021,853	-4,77
1022,274	12,23
1022,694	-10,77
1023,114	-7,57
1023,535	0,03
1023,955	0,03
1024,375	10,23
1024,795	-4,97
1025,215	10,63
1025,635	-4,17
1026,055	-5,97
1026,475	11,63
1026,895	7,83
1027,315	2,83
1027,735	0,03
1028,155	3,23
1028,575	4,03
1028,995	-2,57
1029,414	6,23
1029,834	7,83
1030,254	5,23
1030,674	-2,57
1031,093	6,83
1031,513	-0,37
1031,933	9,43
1032,352	5,23
1032,772	11,23
1033,191	0,03
1033,611	7,43
1034,03	13,43
1034,45	3,63
1034,869	-0,97
1035,289	1,83
1035,708	7,03
1036,127	-0,97
1036,546	1,23
1036,966	7,43
1037,385	0,83
1037,804	5,03
1038,223	8,43
1038,642	2,83
1039,062	-0,97
1039,481	9,63
1039,9	-3,57
1040,319	-1,57
1040,738	2,43
1041,157	6,63
1041,576	10,03
1041,994	1,83
1042,413	-0,17
1042,832	10,43
1043,251	2,23
1043,67	1,03
1044,088	-2,57
1044,507	0,23
1044,926	1,43
1045,345	15,03
1045,763	8,23
1046,182	1,83
1046,6	8,23
1047,019	-9,77
1047,437	4,03
1047,856	-4,37
1048,274	7,23
1048,693	-1,37
1049,111	3,23
1049,529	-8,97
1049,948	-3,37
1050,366	9,23
1050,784	2,83
1051,202	3,63
1051,621	8,03
1052,039	2,63
1052,457	14,03
1052,875	7,23
1053,293	1,23
1053,711	6,43
1054,129	-0,77
1054,547	5,83
1054,965	1,43
1055,383	10,23
1055,801	-0,97
1056,219	-6,57
1056,637	7,23
1057,054	2,43
1057,472	4,23
1057,89	13,03
1058,308	-8,37
1058,725	5,03
1059,143	7,83
1059,561	-9,97
1059,978	-5,57
1060,396	-7,77
1060,813	14,23
1061,231	14,03
1061,648	5,63
1062,066	-6,17
1062,483	-7,77
1062,9	6,03
1063,318	10,03
1063,735	10,63
1064,152	0,43
1064,57	3,03
1064,987	-4,77
1065,404	-1,57
1065,821	11,03
1066,238	3,03
1066,655	-6,77
1067,073	4,43
1067,49	2,03
1067,907	10,43
1068,324	6,23
1068,741	-1,57
1069,157	1,63
1069,574	13,83
1069,991	5,03
1070,408	-1,97
1070,825	4,83
1071,242	-1,17
1071,658	1,23
1072,075	12,83
1072,492	1,83
1072,908	0,03
1073,325	4,63
1073,742	7,63
1074,158	12,83
1074,575	3,63
1074,991	-3,17
1075,408	1,63
1075,824	-3,77
1076,24	10,83
1076,657	3,63
1077,073	12,23
1077,489	4,23
1077,906	8,83
1078,322	0,63
1078,738	-1,77
1079,154	-0,37
1079,571	0,63
1079,987	0,83
1080,403	0,83
1080,819	8,83
1081,235	-0,97
1081,651	5,63
1082,067	-0,97
1082,483	4,63
1082,899	9,83
1083,315	4,23
1083,73	3,23
1084,146	4,23
1084,562	6,43
1084,978	8,23
1085,394	11,23
1085,809	-4,97
1086,225	3,23
1086,641	-2,37
1087,056	3,23
1087,472	1,43
1087,887	-2,77
1088,303	9,43
1088,718	0,23
1089,134	4,83
1089,549	0,63
1089,965	1,23
1090,38	-1,37
1090,795	-4,37
1091,21	2,43
1091,626	3,43
1092,041	7,23
1092,456	2,03
1092,871	-6,97
1093,287	4,23
1093,702	-4,97
1094,117	4,83
1094,532	-5,77
1094,947	0,63
1095,362	-3,77
1095,777	-3,97
1096,192	2,03
1096,607	-18,97
1097,021	-0,57
1097,436	1,63
1097,851	10,83
1098,266	-3,57
1098,681	4,83
1099,095	3,03
1099,51	7,23
1099,925	11,23
1100,339	-2,17
1100,754	5,63
1101,168	-5,57
1101,583	-2,17
1101,998	0,43
1102,412	-1,17
1102,826	2,23
1103,241	-6,57
1103,655	-0,57
1104,07	8,83
1104,484	2,63
1104,898	-1,97
1105,312	5,23
1105,727	-0,37
1106,141	4,03
1106,555	3,63
1106,969	-0,77
1107,383	1,03
1107,797	5,43
1108,211	-2,57
1108,625	15,23
1109,039	-2,17
1109,453	2,23
1109,867	2,63
1110,281	4,43
1110,695	5,23
1111,109	1,63
1111,523	3,43
1111,936	9,83
1112,35	7,43
1112,764	-1,57
1113,177	3,63
1113,591	6,03
1114,005	11,03
1114,418	0,43
1114,832	0,43
1115,245	-11,37
1115,659	5,23
